3475.96	8731.68
3474.68	9629.84
3473.41	10397.2
3472.13	10985.4
3470.85	11531.4
3469.57	11966.8
3468.29	12341.4
3467.01	12650.1
3465.73	12922.8
3464.45	13171.5
3463.17	13453.3
3461.89	13706.2
3460.61	13995.9
3459.33	14221.7
3458.05	14516.5
3456.76	14780.4
3455.48	15044.5
3454.2	15292.4
3452.92	15617.4
3451.63	15938.3
3450.35	16221.2
3449.06	16551.6
3447.78	16822.9
3446.5	17046.1
3445.21	17312.4
3443.93	17562.5
3442.64	17839.9
3441.35	18084.8
3440.07	18366.1
3438.78	18581.2
3437.49	18860.1
3436.21	19085.3
3434.92	19304.1
3433.63	19659.1
3432.34	19895.6
3431.05	20129.7
3429.76	20402.2
3428.47	20664.7
3427.18	20847
3425.89	21087.6
3424.6	21317.5
3423.31	21562.9
3422.02	21760
3420.73	21950.2
3419.44	22148.9
3418.14	22312.8
3416.85	22455.9
3415.56	22691.8
3414.27	22926.3
3412.97	23133.9
3411.68	23295.3
3410.38	23493.9
3409.09	23672.8
3407.79	23816.7
3406.5	23968.3
3405.2	24145.6
3403.91	24393.9
3402.61	24601.2
3401.31	24875.1
3400.02	25052.5
3398.72	25300.4
3397.42	25534.1
3396.12	25782.2
3394.83	25999.3
3393.53	26264.2
3392.23	26562.7
3390.93	26776.6
3389.63	27028.1
3388.33	27121
3387.03	27442.9
3385.73	27554.4
3384.43	27783.9
3383.13	27971
3381.82	28168.1
3380.52	28340.8
3379.22	28522.4
3377.92	28703.1
3376.61	28799.7
3375.31	28959
3374.01	29130.8
3372.7	29255.8
3371.4	29264.6
3370.09	29428.1
3368.79	29538.5
3367.48	29710.4
3366.18	29802.3
3364.87	29984.1
3363.56	30061.2
3362.26	30227.4
3360.95	30313.1
3359.64	30381.2
3358.34	30502.3
3357.03	30665.4
3355.72	30716.7
3354.41	30877.3
3353.1	30964
3351.79	31097.3
3350.48	31258.4
3349.17	31371.3
3347.86	31557.9
3346.55	31697.4
3345.24	31945.1
3343.93	32131
3342.61	32362.6
3341.3	32597.1
3339.99	32871.6
3338.68	33101.4
3337.36	33283.3
3336.05	33458.4
3334.73	33779.4
3333.42	34038.3
3332.11	34127.2
3330.79	34412.3
3329.48	34562.9
3328.16	34843.6
3326.84	35037.3
3325.53	35246.3
3324.21	35416.6
3322.89	35665.8
3321.58	35841.2
3320.26	36092.3
3318.94	36229
3317.62	36499.7
3316.3	36733
3314.98	36922.8
3313.66	37073.7
3312.34	37286.3
3311.02	37373.9
3309.7	37518.2
3308.38	37663.3
3307.06	37779.2
3305.74	37875.5
3304.42	37991.3
3303.1	38044.3
3301.77	38122.9
3300.45	38208.1
3299.13	38229.5
3297.8	38369.6
3296.48	38504
3295.15	38735
3293.83	38939.9
3292.51	39136.9
3291.18	39514.6
3289.85	39897.8
3288.53	40301.1
3287.2	40839.7
3285.88	41332.8
3284.55	41935
3283.22	42623.6
3281.89	43322.5
3280.57	44169.2
3279.24	44993.5
3277.91	45903.8
3276.58	46986.6
3275.25	48134.5
3273.92	49359
3272.59	50701.6
3271.26	52186.5
3269.93	53635.7
3268.6	55339
3267.26	57079.2
3265.93	58789.1
3264.6	60800.7
3263.27	62872.6
3261.94	64310.3
3260.6	64444
3259.27	64451
3257.94	64433
3256.6	64446
3255.27	64435
3253.93	64440
3252.6	64439
3251.26	64436
3249.92	64435
3248.59	64435
3247.25	64452
3245.91	64461
3244.58	64446
3243.24	64447
3241.9	64439
3240.56	64438
3239.22	64444
3237.88	64443
3236.54	64447
3235.2	64439
3233.86	64449
3232.52	64424
3231.18	64435
3229.84	64435
3228.5	64447
3227.16	64446
3225.82	64448
3224.47	64433
3223.13	64453
3221.79	64419
3220.44	64431
3219.1	64452
3217.75	64460
3216.41	64426
3215.06	64445
3213.72	64435
3212.37	64430
3211.03	64448
3209.68	64439
3208.33	64436
3206.99	64441
3205.64	64459
3204.29	64454
3202.94	64447
3201.59	64460
3200.25	64442
3198.9	64443
3197.55	64441
3196.2	64451
3194.85	64454
3193.5	64423
3192.14	64451
3190.79	64454
3189.44	64449
3188.09	64451
3186.74	64445
3185.39	64437
3184.03	64447
3182.68	64440
3181.32	64445
3179.97	64456
3178.62	64446
3177.26	64453
3175.91	64436
3174.55	64434
3173.19	64450
3171.84	64467
3170.48	64444
3169.12	64440
3167.77	64433
3166.41	64441
3165.05	64449
3163.69	64442
3162.33	64452
3160.98	64440
3159.62	64434
3158.26	64432
3156.9	64443
3155.54	64448
3154.18	64456
3152.81	64449
3151.45	64468
3150.09	64435
3148.73	64442
3147.37	64436
3146	64448
3144.64	64444
3143.28	64439
3141.91	64455
3140.55	64438
3139.18	64426
3137.82	64446
3136.45	64433
3135.09	64461
3133.72	64439
3132.35	64457
3130.99	64445
3129.62	64436
3128.25	64444
3126.88	64439
3125.52	64450
3124.15	64436
3122.78	64446
3121.41	64460
3120.04	64459
3118.67	64427
3117.3	64456
3115.93	64447
3114.56	64450
3113.19	64439
3111.81	64447
3110.44	64450
3109.07	64473
3107.7	64437
3106.32	64451
3104.95	64447
3103.58	64437
3102.2	64460
3100.83	64440
3099.45	64439
3098.08	64461
3096.7	64442
3095.33	64438
3093.95	64444
3092.57	64437
3091.2	64446
3089.82	64451
3088.44	64445
3087.06	64456
3085.68	64432
3084.31	64441
3082.93	64431
3081.55	64452
3080.17	64432
3078.79	64450
3077.41	64450
3076.03	64437
3074.64	64434
3073.26	64452
3071.88	64431
3070.5	64435
3069.11	64438
3067.73	64445
3066.35	64430
3064.97	64457
3063.58	64441
3062.2	64439
3060.81	64444
3059.43	64447
3058.04	64448
3056.65	64450
3055.27	64439
3053.88	64440
3052.49	64439
3051.11	64440
3049.72	64437
3048.33	64441
3046.94	64442
3045.55	64441
3044.16	64460
3042.77	64450
3041.39	64450
3040	64453
3038.6	64434
3037.21	64438
3035.82	64433
3034.43	64455
3033.04	64432
3031.65	64445
3030.25	64457
3028.86	64450
3027.47	64455
3026.07	64450
3024.68	64448
3023.28	64460
3021.89	64445
3020.49	64451
3019.1	64445
3017.7	64450
3016.31	64438
3014.91	64448
3013.51	64445
3012.12	64464
3010.72	64443
3009.32	64449
3007.92	64432
3006.52	64452
3005.12	64464
3003.72	64445
3002.32	64442
3000.92	64468
2999.52	64450
2998.12	64438
2996.72	64454
2995.32	64451
2993.92	64434
2992.51	64447
2991.11	64439
2989.71	64443
2988.3	64445
2986.9	64459
2985.5	64437
2984.09	64441
2982.69	64455
2981.28	64434
2979.88	64451
2978.47	64452
2977.06	64432
2975.66	64439
2974.25	64441
2972.84	64449
2971.43	64438
2970.03	64440
2968.62	64443
2967.21	64444
2965.8	64438
2964.39	64445
2962.98	64436
2961.57	64465
2960.16	64448
2958.75	64445
2957.34	64450
2955.92	64444
2954.51	64442
2953.1	64452
2951.69	64448
2950.27	64459
2948.86	64442
2947.45	64447
2946.03	64454
2944.62	64436
2943.2	64449
2941.79	64461
2940.37	64449
2938.95	64437
2937.54	64454
2936.12	64450
2934.7	64462
2933.29	64446
2931.87	64440
2930.45	64435
2929.03	64449
2927.61	64437
2926.19	64447
2924.77	64436
2923.35	64451
2921.93	64454
2920.51	64448
2919.09	64441
2917.67	64438
2916.25	64451
2914.82	64437
2913.4	64454
2911.98	64434
2910.55	64447
2909.13	64449
2907.71	64436
2906.28	64439
2904.86	64435
2903.43	64443
2902.01	64444
2900.58	64458
2899.15	64441
2897.73	64451
2896.3	64445
2894.87	64448
2893.45	64461
2892.02	64450
2890.59	64465
2889.16	64444
2887.73	64438
2886.3	64444
2884.87	64447
2883.44	64448
2882.01	64460
2880.58	64449
2879.15	64446
2877.72	64443
2876.28	64450
2874.85	64452
2873.42	64466
2871.98	64447
2870.55	64471
2869.12	64445
2867.68	64442
2866.25	64459
2864.81	64439
2863.38	64441
2861.94	64438
2860.5	64443
2859.07	64433
2857.63	64449
2856.19	64436
2854.76	64453
2853.32	64451
2851.88	64450
2850.44	64444
2849	64466
2847.56	64438
2846.12	64451
2844.68	64447
2843.24	64462
2841.8	64441
2840.36	64441
2838.92	64451
2837.48	64455
2836.03	64441
2834.59	64448
2833.15	64446
2831.7	64451
2830.26	64441
2828.81	64456
2827.37	64444
2825.93	64451
2824.48	64447
2823.03	64452
2821.59	64434
2820.14	64450
2818.69	64445
2817.25	64449
2815.8	64460
2814.35	64447
2812.9	64457
2811.45	64436
2810.01	64454
2808.56	64442
2807.11	64453
2805.66	64442
2804.21	64440
2802.75	64443
2801.3	64445
2799.85	64458
2798.4	64437
2796.95	64458
2795.49	64447
2794.04	64446
2792.59	64435
2791.13	64448
2789.68	64441
2788.22	64441
2786.77	64457
2785.31	64447
2783.86	64438
2782.4	64438
2780.95	64460
2779.49	64448
2778.03	64457
2776.57	64443
2775.12	64437
2773.66	64444
2772.2	64462
2770.74	64450
2769.28	64439
2767.82	64430
2766.36	64458
2764.9	64439
2763.44	64457
2761.98	64447
2760.52	64473
2759.05	64443
2757.59	64467
2756.13	64442
2754.66	64457
2753.2	64458
2751.74	64435
2750.27	64455
2748.81	64435
2747.34	64442
2745.88	64439
2744.41	64447
2742.95	64441
2741.48	64449
2740.01	64445
2738.55	64447
2737.08	64455
2735.61	64440
2734.14	64456
2732.67	64456
2731.2	64419
2729.73	64449
2728.26	64446
2726.79	64458
2725.32	64440
2723.85	64443
2722.38	64434
2720.91	64441
2719.44	64453
2717.96	64426
2716.49	64445
2715.02	64449
2713.54	64440
2712.07	64448
2710.6	64455
2709.12	64434
2707.65	64446
2706.17	64414
2704.69	64434
2703.22	64457
2701.74	64455
2700.26	64459
2698.79	64451
2697.31	64445
2695.83	64454
2694.35	64453
2692.87	64429
2691.39	64449
2689.91	64440
2688.43	64453
2686.95	64454
2685.47	64448
2683.99	64452
2682.51	64464
2681.03	64442
2679.55	64453
2678.06	64438
2676.58	64450
2675.1	64430
2673.61	64453
2672.13	64444
2670.64	64459
2669.16	64445
2667.67	64441
2666.19	64454
2664.7	64438
2663.22	64437
2661.73	64446
2660.24	64452
2658.75	64455
2657.27	64441
2655.78	64448
2654.29	64463
2652.8	64428
2651.31	64437
2649.82	64446
2648.33	64442
2646.84	64445
2645.35	64454
2643.86	64448
2642.37	64439
2640.87	64455
2639.38	64454
2637.89	64461
2636.4	64444
2634.9	64425
2633.41	64429
2631.91	64447
2630.42	64444
2628.92	64428
2627.43	64438
2625.93	64458
2624.44	64439
2622.94	64460
2621.44	64460
2619.95	64445
2618.45	64441
2616.95	64441
2615.45	64462
2613.95	64440
2612.45	64456
2610.95	64454
2609.45	64446
2607.95	64457
2606.45	64454
2604.95	64438
2603.45	64435
2601.95	64439
2600.44	64460
2598.94	64443
2597.44	64453
2595.94	64449
2594.43	64433
2592.93	64458
2591.42	64447
2589.92	64446
2588.41	64458
2586.91	64458
2585.4	64433
2583.89	64453
2582.39	64455
2580.88	64441
2579.37	64453
2577.86	64444
2576.36	64446
2574.85	64457
2573.34	64436
2571.83	64448
2570.32	64470
2568.81	64453
2567.3	64434
2565.79	64452
2564.27	64446
2562.76	64453
2561.25	64458
2559.74	64439
2558.22	64454
2556.71	64443
2555.2	64444
2553.68	64457
2552.17	64463
2550.65	64443
2549.14	64449
2547.62	64444
2546.11	64436
2544.59	64439
2543.07	64451
2541.56	64448
2540.04	64440
2538.52	64446
2537	64439
2535.48	64457
2533.96	64450
2532.44	64450
2530.92	64463
2529.4	64451
2527.88	64450
2526.36	64441
2524.84	64447
2523.32	64461
2521.8	64455
2520.27	64451
2518.75	64436
2517.23	64451
2515.7	64456
2514.18	64451
2512.66	64459
2511.13	64450
2509.6	64451
2508.08	64440
2506.55	64439
2505.03	64449
2503.5	64447
2501.97	64445
2500.44	64452
2498.92	64441
2497.39	64442
2495.86	64453
2494.33	64452
2492.8	64458
2491.27	64440
2489.74	64447
2488.21	64442
2486.68	64448
2485.15	64457
2483.62	64456
2482.08	64439
2480.55	64463
2479.02	64428
2477.48	64450
2475.95	64444
2474.42	64443
2472.88	64437
2471.35	64454
2469.81	64443
2468.28	64462
2466.74	64433
2465.2	64458
2463.67	64447
2462.13	64461
2460.59	64457
2459.05	64452
2457.51	64441
2455.98	64439
2454.44	64448
2452.9	64448
2451.36	64454
2449.82	64446
2448.28	64463
2446.73	64466
2445.19	64428
2443.65	64445
2442.11	64455
2440.57	64447
2439.02	64451
2437.48	64434
2435.94	64436
2434.39	64435
2432.85	64455
2431.3	64453
2429.76	64449
2428.21	64444
2426.66	64443
2425.12	64443
2423.57	64436
2422.02	64438
2420.47	64452
2418.93	64453
2417.38	64449
2415.83	64438
2414.28	64455
2412.73	64436
2411.18	64438
2409.63	64462
2408.08	64453
2406.53	64455
2404.97	64442
2403.42	64465
2401.87	64447
2400.32	64456
2398.76	64457
2397.21	64445
2395.66	64470
2394.1	64443
2392.55	64466
2390.99	64442
2389.44	64440
2387.88	64449
2386.32	64451
2384.77	64449
2383.21	64443
2381.65	64450
2380.09	64442
2378.54	64461
2376.98	64440
2375.42	64445
2373.86	64445
2372.3	64461
2370.74	64436
2369.18	64460
2367.62	64464
2366.06	64462
2364.49	64444
2362.93	64446
2361.37	64450
2359.81	64458
2358.24	64447
2356.68	64436
2355.11	64447
2353.55	64471
2351.98	64453
2350.42	64453
2348.85	64478
2347.29	64453
2345.72	64431
2344.15	64454
2342.59	64462
2341.02	64439
2339.45	64460
2337.88	64449
2336.31	64457
2334.74	64453
2333.17	64457
2331.6	64446
2330.03	64444
2328.46	64450
2326.89	64456
2325.32	64442
2323.75	64445
2322.17	64442
2320.6	64449
2319.03	64460
2317.45	64457
2315.88	64434
2314.3	64453
2312.73	64444
2311.15	64454
2309.58	64456
2308	64447
2306.43	64456
2304.85	64446
2303.27	64443
2301.69	64446
2300.12	64441
2298.54	64460
2296.96	64439
2295.38	64465
2293.8	64443
2292.22	64458
2290.64	64446
2289.06	64447
2287.48	64446
2285.9	64447
2284.31	64449
2282.73	64447
2281.15	64459
2279.57	64445
2277.98	64449
2276.4	64448
2274.81	64441
2273.23	64439
2271.64	64446
2270.06	64438
2268.47	64444
2266.89	64454
2265.3	64423
2263.71	64447
2262.12	64441
2260.54	64444
2258.95	64459
2257.36	64453
2255.77	64435
2254.18	64456
2252.59	64460
2251	64449
2249.41	64454
2247.82	64453
2246.23	64448
2244.63	64444
2243.04	64458
2241.45	64455
2239.85	64448
2238.26	64454
2236.67	64454
2235.07	64459
2233.48	64451
2231.88	64448
2230.29	64445
2228.69	64455
2227.1	64447
2225.5	64439
2223.9	64460
2222.3	64448
2220.71	64455
2219.11	64431
2217.51	64445
2215.91	64454
2214.31	64442
2212.71	64441
2211.11	64441
2209.51	64454
2207.91	64443
2206.31	64447
2204.7	64440
2203.1	64460
2201.5	64445
2199.89	64463
2198.29	64449
2196.69	64442
2195.08	64454
2193.48	64452
2191.87	64443
2190.27	64446
2188.66	64463
2187.05	64447
2185.45	64436
2183.84	64447
2182.23	64461
2180.62	64457
2179.02	64441
2177.41	64456
2175.8	64455
2174.19	64456
2172.58	64458
2170.97	64450
2169.36	64454
2167.75	64459
2166.13	64450
2164.52	64463
2162.91	64441
2161.3	64463
2159.68	64437
2158.07	64465
2156.46	64449
2154.84	64456
2153.23	64435
2151.61	64456
2150	64462
2148.38	64448
2146.76	64442
2145.15	64437
2143.53	64466
2141.91	64457
2140.29	64458
2138.67	64445
2137.05	64450
2135.44	64445
2133.82	64442
2132.2	64453
2130.57	64456
2128.95	64445
2127.33	64454
2125.71	64461
2124.09	64438
2122.47	64456
2120.84	64462
2119.22	64437
2117.6	64462
2115.97	64445
2114.35	64446
2112.72	64459
2111.1	64446
2109.47	64439
2107.84	64442
2106.22	64451
2104.59	64439
2102.96	64455
2101.34	64447
2099.71	64447
2098.08	64443
2096.45	64455
2094.82	64437
2093.19	64451
2091.56	64451
2089.93	64449
2088.3	64451
2086.67	64446
2085.03	64455
2083.4	64463
2081.77	64458
2080.14	64463
2078.5	64455
2076.87	64441
2075.23	64463
2073.6	64445
2071.96	64449
2070.33	64465
2068.69	64452
2067.06	64453
2065.42	64436
2063.78	64460
2062.14	64444
2060.51	64456
2058.87	64462
2057.23	64456
2055.59	64460
2053.95	64448
2052.31	64472
2050.67	64449
2049.03	64438
2047.39	64448
2045.74	64440
2044.1	64464
2042.46	64432
2040.82	64447
2039.17	64448
2037.53	64454
2035.88	64448
2034.24	64462
2032.6	64445
2030.95	64472
2029.3	64453
2027.66	64452
2026.01	64453
2024.36	64444
2022.72	64434
2021.07	64452
2019.42	64456
2017.77	64442
2016.12	64448
2014.47	64457
2012.82	64450
2011.17	64452
2009.52	64453
2007.87	64442
2006.22	64460
2004.57	64447
2002.91	64448
2001.26	64446
1999.61	64463
1997.95	64438
1996.3	64447
1994.64	64452
1992.99	64459
1991.33	64445
1989.68	64445
1988.02	64457
1986.37	64438
1984.71	64465
1983.05	64444
1981.39	64448
1979.73	64460
1978.08	64444.6
1976.42	64426.7
1974.76	64376.1
1973.1	64368.8
1971.44	64339.7
1969.78	64309.7
1968.12	64255.1
1966.45	64183
1964.79	64099.9
1963.13	64076.6
1961.47	63870.9
1959.8	63752.5
1958.14	63626.3
1956.48	63530.4
1954.81	63462.8
1953.15	63324.6
1951.48	63341.2
1949.82	63146
1948.15	63132.3
1946.48	62956.8
1944.82	62930.3
1943.15	62823.6
1941.48	62713.8
1939.81	62420.3
1938.14	62203.4
1936.47	61924.3
1934.81	61794.8
1933.14	61620
1931.46	61356.4
1929.79	61087.9
1928.12	60940.1
1926.45	60543.1
1924.78	60338.1
1923.11	60163.5
1921.43	60041.8
1919.76	59772.7
1918.09	59534.3
1916.41	59403.3
1914.74	59080.5
1913.06	59017.6
1911.39	58753.5
1909.71	58576.2
1908.04	58377.1
1906.36	58029.3
1904.68	57769.6
1903.01	57388.1
1901.33	57172.5
1899.65	57001.8
1897.97	56705.7
1896.29	56509.6
1894.61	56065.5
1892.93	55845.2
1891.25	55639.3
1889.57	55278.7
1887.89	55218.1
1886.21	55001.5
1884.53	54864.4
1882.84	54628.5
1881.16	54403.9
1879.48	54190.4
1877.79	54081.1
1876.11	53881.7
1874.43	53520.8
1872.74	53273.6
1871.06	53199.8
1869.37	52985.6
1867.68	52850.4
1866	52576.1
1864.31	52613.3
1862.62	52285.8
1860.94	52158.6
1859.25	52074.6
1857.56	51927.9
1855.87	51793.8
1854.18	51673.1
1852.49	51496.4
1850.8	51272.7
1849.11	50952
1847.42	50908.6
1845.73	50739.6
1844.03	50647.7
1842.34	50503.6
1840.65	50330.6
1838.95	50164.3
1837.26	50034.5
1835.57	49849.9
1833.87	49731.5
1832.18	49640.1
1830.48	49378.2
1828.79	49281.5
1827.09	49178.9
1825.39	49151.2
1823.7	49084.5
1822	48966.1
1820.3	48709.5
1818.6	48645.3
1816.9	48481.7
1815.2	48092.9
1813.5	47818.5
1811.8	47626.4
1810.1	47444.5
1808.4	47050.1
1806.7	46879.2
1805	46591
1803.3	46453.6
1801.59	46219.2
1799.89	46062.5
1798.19	45889.8
1796.48	45662.5
1794.78	45461.2
1793.07	45310.6
1791.37	45188.3
1789.66	45054.8
1787.96	45124.5
1786.25	45076.4
1784.54	45095.2
1782.84	45040.2
1781.13	45081.3
1779.42	44930.3
1777.71	44948.8
1776	44930.5
1774.29	44919.8
1772.58	44906.8
1770.87	44919.1
1769.16	44840.1
1767.45	44808.2
1765.74	44818.8
1764.03	44947.5
1762.32	44845.2
1760.6	44692.6
1758.89	44613.7
1757.18	44432.4
1755.46	44389.7
1753.75	44344
1752.03	44240.7
1750.32	44135.7
1748.6	44013.6
1746.89	43872.4
1745.17	43699.7
1743.45	43683.7
1741.74	43610
1740.02	43401.1
1738.3	43425.3
1736.58	43261.6
1734.86	43177.6
1733.14	43049.7
1731.42	42789.4
1729.7	42626.1
1727.98	42390.1
1726.26	42295.3
1724.54	42033.5
1722.81	41774.4
1721.09	41493.7
1719.37	41348.3
1717.65	41047.1
1715.92	40928.5
1714.2	40772.4
1712.47	40600.2
1710.75	40406.5
1709.02	40307.1
1707.29	40172.3
1705.57	39943.9
1703.84	39773.7
1702.11	39671.5
1700.39	39579.3
1698.66	39415.6
1696.93	39293.7
1695.2	39201.8
1693.47	39001.1
1691.74	38911.2
1690.01	38761.8
1688.28	38699.2
1686.55	38480.5
1684.82	38489.7
1683.08	38433.9
1681.35	38314.2
1679.62	38145.7
1677.89	38245.2
1676.15	38148.3
1674.42	38103.4
1672.68	37832.2
1670.95	37961.3
1669.21	37801.2
1667.48	37764.3
1665.74	37671.4
1664	37655.9
1662.27	37550.2
1660.53	37484
1658.79	37570.8
1657.05	37395.5
1655.31	37323.4
1653.57	37219
1651.83	37119.4
1650.09	37052.3
1648.35	37000.3
1646.61	36830.1
1644.87	36701.8
1643.13	36642.8
1641.39	36643.7
1639.64	36626.1
1637.9	36570.4
1636.16	36461.5
1634.41	36534.6
1632.67	36447.4
1630.92	36452.8
1629.18	36410.5
1627.43	36526.8
1625.68	36520.1
1623.94	36621.8
1622.19	36659.5
1620.44	36832.2
1618.69	36911.6
1616.95	37041.7
1615.2	37205.1
1613.45	37189.4
1611.7	37017.7
1609.95	37091.1
1608.2	37087.9
1606.45	37143.2
1604.69	36998.2
1602.94	37031.5
1601.19	37045.3
1599.44	36995.9
1597.68	36952.4
1595.93	36952.1
1594.18	36855.6
1592.42	36739.2
1590.67	36570.5
1588.91	36538.3
1587.16	36437.6
1585.4	36293.2
1583.64	36178.4
1581.89	36105.8
1580.13	36000.2
1578.37	35814.9
1576.61	35724.9
1574.85	35624.4
1573.09	35514.2
1571.33	35303.8
1569.57	35108.6
1567.81	34847.1
1566.05	34579.5
1564.29	34353.5
1562.53	34151.6
1560.77	33882.8
1559	33763.9
1557.24	33554
1555.47	33338.2
1553.71	33107.4
1551.95	32964.9
1550.18	32659.2
1548.42	32582.4
1546.65	32280.7
1544.88	32281.4
1543.12	31971.2
1541.35	31938.2
1539.58	31766
1537.81	31570.2
1536.05	31570.5
1534.28	31468.9
1532.51	31358.7
1530.74	31213.8
1528.97	31121.2
1527.2	31163.2
1525.43	30969.7
1523.65	30795.9
1521.88	30746.8
1520.11	30616.8
1518.34	30509.5
1516.56	30420.4
1514.79	30436.4
1513.01	30364
1511.24	30326.5
1509.46	30340.4
1507.69	30328.1
1505.91	30338.4
1504.14	30160.7
1502.36	30058.5
1500.58	29990.2
1498.8	29850.3
1497.03	29814.6
1495.25	29809.3
1493.47	29675.6
1491.69	29597.5
1489.91	29425.7
1488.13	29351.4
1486.35	29203.8
1484.57	29269.1
1482.79	29144.2
1481	29075.7
1479.22	29049.4
1477.44	28961.1
1475.65	28974.6
1473.87	28866.3
1472.09	28895.1
1470.3	28737.5
1468.52	28609.6
1466.73	28586.1
1464.94	28604.2
1463.16	28394.4
1461.37	28255.7
1459.58	28312.6
1457.79	28180.1
1456.01	28077.3
1454.22	28117.1
1452.43	28014.7
1450.64	27871.1
1448.85	27839.1
1447.06	27838.8
1445.27	27710.9
1443.48	27725.4
1441.68	27587.4
1439.89	27634.1
1438.1	27624.8
1436.31	27504.9
1434.51	27497.5
1432.72	27526.8
1430.92	27621.8
1429.13	27505.7
1427.33	27468.6
1425.54	27467.8
1423.74	27387.9
1421.94	27447.9
1420.15	27368.2
1418.35	27297.5
1416.55	27338
1414.75	27346.5
1412.95	27340.7
1411.15	27211.9
1409.35	27341.7
1407.55	27244.4
1405.75	27251
1403.95	27253.8
1402.15	27213.1
1400.35	27191
1398.54	27180.5
1396.74	27267.8
1394.94	27290.9
1393.13	27367.4
1391.33	27414.3
1389.52	27350.2
1387.72	27346.7
1385.91	27315.2
1384.11	27377.5
1382.3	27331.7
1380.49	27313.7
1378.69	27291.5
1376.88	27338.1
1375.07	27359.3
1373.26	27381.7
1371.45	27326.5
1369.64	27263.5
1367.83	27436
1366.02	27539.1
1364.21	27534.3
1362.4	27482.7
1360.59	27633.2
1358.77	27638.2
1356.96	27665
1355.15	27719.4
1353.33	27753.3
1351.52	27722.7
1349.71	27874.6
1347.89	27825.2
1346.08	27954.9
1344.26	28021.4
1342.44	28096.7
1340.63	28161.4
1338.81	28215.4
1336.99	28239.2
1335.17	28353.3
1333.35	28358.9
1331.54	28369.2
1329.71	28374.4
1327.9	28362.9
1326.07	28443.3
1324.25	28491.5
1322.43	28569.9
1320.61	28606.1
1318.79	28617.6
1316.97	28644.2
1315.14	28567.6
1313.32	28478.1
1311.49	28498.5
1309.67	28298.1
1307.85	28224.5
1306.02	28265.8
1304.19	28225.5
1302.37	27993.2
1300.54	27810.5
1298.71	27789.4
1296.89	27656.9
1295.06	27445.7
1293.23	27336.3
1291.4	27122.2
1289.57	26955.3
1287.74	26720.3
1285.91	26557.9
1284.08	26290.5
1282.25	26086.5
1280.42	25908.5
1278.58	25784.5
1276.75	25483.9
1274.92	25383.9
1273.08	25269.6
1271.25	25103.8
1269.42	24923.2
1267.58	24764.4
1265.75	24660.2
1263.91	24552
1262.07	24500.6
1260.24	24338.5
1258.4	24266.7
1256.56	24168.6
1254.72	24103.6
1252.88	24030.9
1251.05	23897.5
1249.21	23829.1
1247.37	23730.4
1245.53	23668.3
1243.69	23583.6
1241.84	23484.6
1240	23386.6
1238.16	23315.3
1236.32	23195.6
1234.47	23049.7
1232.63	23002.6
1230.79	22895.7
1228.94	22796.6
1227.1	22660.4
1225.25	22501.5
1223.41	22426.7
1221.56	22231.1
1219.71	22177.5
1217.87	22103.6
1216.02	22008.2
1214.17	21998
1212.32	21800
1210.47	21752.8
1208.62	21664.1
1206.77	21559.1
1204.92	21440.8
1203.07	21403.4
1201.22	21392.3
1199.37	21377.3
1197.52	21292.3
1195.66	21123.4
1193.81	21176.1
1191.96	21043.5
1190.1	21074.3
1188.25	20979.7
1186.39	20956.3
1184.54	20875.4
1182.68	20901.8
1180.83	20852.9
1178.97	20794.6
1177.11	20799.4
1175.25	20790.8
1173.4	20709.9
1171.54	20721.7
1169.68	20610
1167.82	20588.5
1165.96	20502.4
1164.1	20418
1162.24	20391.2
1160.38	20339.9
1158.51	20312.7
1156.65	20246.5
1154.79	20243.8
1152.93	20169
1151.06	20156.9
1149.2	20094.3
1147.33	20036.5
1145.47	20071.2
1143.6	20131.2
1141.74	20058.3
1139.87	20020.4
1138	20061.6
1136.13	20025.1
1134.27	19947.5
1132.4	19905.4
1130.53	19852.7
1128.66	19834.6
1126.79	19756.5
1124.92	19670.4
1123.05	19578
1121.18	19481
1119.31	19411
1117.44	19325.3
1115.56	19216.6
1113.69	19050.2
1111.82	18958.6
1109.94	18906.3
1108.07	18833.2
1106.19	18785.3
1104.32	18712.5
1102.44	18792.4
1100.57	18715.5
1098.69	18664.6
1096.81	18631.7
1094.94	18578.9
1093.06	18528.2
1091.18	18548.4
1089.3	18490.5
1087.42	18445.9
1085.54	18464.2
1083.66	18392.5
1081.78	18347.8
1079.9	18393.2
1078.02	18441.6
1076.13	18361.6
1074.25	18414.6
1072.37	18406.5
1070.49	18358.3
1068.6	18337.9
1066.72	18312.5
1064.83	18321
1062.95	18266.2
1061.06	18196.4
1059.17	18184.8
1057.29	18240
1055.4	18227.8
1053.51	18147.6
1051.62	18236
1049.74	18194.1
1047.85	18232.7
1045.96	18248.2
1044.07	18142.8
1042.18	18188
1040.29	18071.9
1038.39	18089.6
1036.5	18069.5
1034.61	18075.1
1032.72	18019.4
1030.82	17979.8
1028.93	17939.3
1027.03	17889.6
1025.14	17828.8
1023.24	17816.6
1021.35	17764.1
1019.45	17788.5
1017.56	17716.2
1015.66	17716.7
1013.76	17712.9
1011.86	17630.7
1009.97	17704.8
1008.07	17624.2
1006.17	17636.3
1004.27	17654.5
1002.37	17652.7
1000.47	17667.9
998.564	17670.2
996.662	17658.9
994.76	17697.8
992.857	17608.1
990.954	17603.9
989.05	17594.5
987.147	17684.2
985.242	17733.4
983.337	17713.6
981.431	17688.1
979.525	17664.8
977.619	17658.2
975.712	17715
973.805	17708.7
971.897	17753.2
969.988	17611.5
968.079	17691.6
966.171	17644.3
964.261	17569.8
962.35	17593.2
960.44	17535.2
958.528	17535.9
956.617	17559.8
954.704	17608.5
952.792	17592.2
950.879	17605
948.966	17586.5
947.052	17628.3
945.137	17662.8
943.222	17621
941.307	17675
939.391	17631.6
937.474	17582.9
935.557	17647.6
933.64	17606.8
931.722	17594.3
929.804	17614.9
927.886	17490.2
925.967	17461.9
924.047	17422.9
922.127	17405.4
920.206	17414.2
918.285	17390.3
916.364	17356.1
914.441	17392.9
912.519	17316.5
910.596	17345.7
908.672	17255.7
906.748	17273.9
904.824	17233.3
902.899	17256.4
900.974	17380.5
899.047	17316.2
897.122	17304.7
895.195	17352.9
893.267	17352.8
891.34	17332.3
889.412	17319.8
887.483	17305.5
885.554	17323.3
883.624	17270.4
881.694	17284.5
879.764	17251.3
877.832	17256.1
875.901	17276
873.969	17210.3
872.036	17282.7
870.103	17233.1
868.17	17180.3
866.236	17173.4
864.301	17151.8
862.367	17154.6
860.432	17113.9
858.496	17125.3
856.559	17085
854.623	17080.7
852.685	17015.6
850.747	17062.8
848.809	17017.3
846.87	16997.9
844.932	17020.6
842.992	16996.9
841.052	17074.1
839.111	16969.7
837.17	17017.8
835.228	16989.7
833.287	17014.3
831.344	16933.6
829.401	16992.8
827.457	16925.7
825.513	16870.3
823.57	16842.4
821.624	16907
819.679	16870.3
817.733	16835
815.787	16785.7
813.84	16752.7
811.893	16728.8
809.945	16728.6
807.997	16633.9
806.048	16681.7
804.099	16661.3
802.149	16639.8
800.199	16670.3
798.249	16692.6
796.298	16669.9
794.346	16618.4
792.394	16638.2
790.441	16634.4
788.488	16639
786.535	16668.8
784.581	16622.3
782.626	16640.8
780.671	16644.9
778.716	16615.4
776.759	16615.1
774.803	16654.3
772.846	16564.2
770.888	16552.1
768.931	16567.7
766.972	16601.2
765.014	16574.1
763.054	16567.7
761.094	16511.3
759.135	16486.4
757.173	16546.4
755.213	16557.7
753.251	16480.7
751.289	16471.8
749.326	16551.6
747.362	16539.1
745.399	16496.3
743.435	16498.9
741.47	16526.7
739.505	16498.2
737.539	16530.2
735.574	16529.7
733.606	16521.2
731.64	16535.9
729.672	16507.7
727.704	16506.7
725.736	16501.7
723.767	16495.3
721.797	16462.1
719.827	16495.6
717.856	16440.7
715.886	16412.7
713.914	16405.7
711.943	16449
709.97	16400.5
707.997	16436.6
706.024	16453.7
704.051	16493.6
702.076	16446.6
700.101	16444.6
698.126	16405.3
696.15	16393.6
694.174	16445.7
692.197	16485.2
690.22	16471.5
688.242	16521.3
686.264	16493.7
684.285	16517.2
682.306	16486
680.326	16567.9
678.346	16542.1
676.365	16495.8
674.384	16510.7
672.403	16449.3
670.421	16396.4
668.438	16448.8
666.455	16474.6
664.471	16455.9
662.487	16450
660.503	16516.2
658.517	16541.6
656.532	16526.8
654.546	16507.2
652.559	16504.2
650.573	16521.6
648.585	16562.7
646.597	16684.1
644.609	16679.5
642.62	16669.9
640.631	16709.3
638.64	16684.7
636.65	16701.5
634.659	16706.5
632.668	16763.2
630.676	16766.2
628.683	16812.9
626.691	16766.9
624.697	16809.9
622.703	16793.3
620.709	16733.4
618.714	16830.7
616.719	16812.4
614.723	16852.7
612.727	16831.2
610.73	16883.9
608.733	16903.8
606.734	16886.9
604.737	16910.1
602.738	16862.4
600.739	16901.7
598.739	16852.7
596.739	16860.1
594.738	16920.8
592.737	16921.7
590.735	16914.7
588.733	16852.2
586.73	16894.4
584.727	16882.6
582.724	16905.7
580.719	16905.5
578.715	16913.5
576.709	16878.3
574.703	16916
572.697	16876
570.691	16872
568.684	16889.7
566.676	16848.9
564.667	16828.3
562.659	16863
560.65	16874.3
558.641	16850.3
556.631	16777.1
554.62	16848.1
552.609	16859.9
550.597	16858.1
548.585	16919.1
546.572	16922.5
544.559	16985.2
542.546	17017.6
540.532	17056.5
538.517	17103.4
536.502	17171.3
534.487	17175.6
532.471	17294.2
530.454	17421.7
528.437	17705.7
526.419	18302.2
524.401	19492.5
522.383	21796.1
520.364	24823.4
518.344	25788.5
516.325	23663.8
514.304	20907
512.283	19071.3
510.261	18202.3
508.239	17660.8
506.217	17506.6
504.194	17340.3
502.17	17270
500.146	17276
498.122	17173.7
496.097	17139.8
494.072	17143.4
492.045	17091.2
490.019	16980.6
487.992	17090.1
485.964	17091.7
483.936	17064
481.908	17075.3
479.879	17168.5
477.849	17071.2
475.82	17045.5
473.789	16972.4
471.758	16972.5
469.727	16985.3
467.694	17015.1
465.662	16966.8
463.629	17010.8
461.595	16986.8
459.562	16993
457.527	16907.3
455.493	16905.6
453.456	16874.1
451.421	16916.6
449.384	16965.8
447.348	16929.5
445.31	16891.4
443.272	16921.7
441.234	16922.4
439.195	16977.9
437.155	16968.4
435.115	16952.8
433.074	16929.8
431.034	16855.9
428.992	16828.7
426.95	16837.6
424.907	16874.1
422.865	16940.8
420.82	16984.7
418.776	16951.9
416.733	16955.8
414.687	16921.2
412.641	16957.5
410.596	16963.8
408.549	16973.3
406.502	16996.4
404.454	17036.7
402.407	17024.4
400.358	17004.2
398.309	16994.8
396.259	17047.4
394.21	16950.6
392.159	17044.2
390.108	17001.8
388.056	17078.4
386.004	17065.8
383.951	17043.9
381.899	17027.4
379.845	17117.7
377.791	17117.1
375.736	17078.6
373.681	17088
371.626	17104.2
369.569	17112.1
367.513	17085.7
365.456	17067.2
363.398	17003.4
361.34	17057.2
359.281	16953.1
357.222	16949.7
355.163	16926.6
353.102	16925.7
351.042	16996.5
348.981	17023.6
346.919	16948.3
344.857	16988.7
342.794	16969
340.731	17014.2
338.667	17011.9
336.603	17008.9
334.538	16956.9
332.473	16995
330.407	16942.7
328.341	16910
326.274	16885.4
324.207	16920.6
322.14	16962.9
320.071	16930.5
318.002	16916
315.932	16948.8
313.863	16958.3
311.793	16984.2
309.722	17005.2
307.65	17084.9
305.579	17072.8
303.506	17161.5
301.433	17103.2
299.36	17070.9
297.286	16979.1
295.212	16946
293.136	16839.4
291.061	16689.8
288.985	16743.6
286.909	16626.4
284.832	16560.4
282.754	16520.8
280.677	16458.4
278.598	16450.9
276.519	16445.6
274.44	16488.7
272.36	16408
270.279	16350
268.198	16408.4
266.117	16390.5
264.034	16358.1
261.952	16367.9
259.869	16306.4
257.785	16320.5
255.701	16300.9
253.617	16312.4
251.531	16333.1
249.446	16384.5
247.36	16435.2
245.273	16433.9
243.186	16428
241.098	16359.8
239.01	16356.4
236.922	16353.7
234.832	16305.3
232.742	16294.7
230.652	16284.1
228.561	16229.8
226.47	16178.9
224.378	16069.2
222.286	16025.6
220.193	15962.4
218.1	15876.8
216.005	15778.9
213.911	15763.2
211.817	15648.8
209.721	15594.3
207.625	15613.8
205.528	15536
203.432	15401.6
201.334	15373.3
199.236	15334.2
197.138	15298.2
195.039	15149.9
192.939	15091.7
190.839	15044.1
188.739	14957.4
186.637	14939.9
184.536	14955.4
182.434	14934.1
180.331	14928.9
178.228	14963.7
176.124	14928.2
174.02	14976.1
171.915	14957.2
169.81	14908.6
167.704	14956.6
165.598	15007.9
163.491	14979.8
161.384	15008.3
159.276	15007.1
157.167	15031.4
155.059	15023.8
152.949	15081.5
150.839	15059.8
148.729	15078.1
146.618	15066.1
144.507	15147.3
142.395	15128.8
140.282	15039.4
138.169	15112.1
136.056	15074.7
133.941	15121.5
131.827	15125.3
129.712	15120.5
127.597	15101
125.48	15161.1
123.364	15157.3
121.247	15145.5
119.128	15113.1
117.01	15025.5
114.891	15081.1
112.773	15081.8
110.653	15122.5
108.533	15136.7
106.412	15148.3
104.29	15122.7
102.168	15152.3
100.046	15231.4
97.9229	15188.2
95.7996	15257.2
93.6756	15111.9
91.5508	14945.4
89.4264	14403.8
87.3012	13427.9
85.1743	12136.8
83.0487	10530.2
80.9213	8697.26
78.7933	6897.95
76.6655	5217.53
74.537	3780.68
72.4078	2637.84
70.2778	1797.68
68.1472	1222.32
66.0168	813.105
63.8857	554.737
61.7539	397
59.6214	275.474
57.4881	210.632
55.3551	167.579
53.2214	135.263
51.087	138.316
48.9518	104.842
