3475.96	1080.26
3474.68	1203.42
3473.41	1286
3472.13	1366.37
3470.85	1424.16
3469.57	1494.84
3468.29	1528.05
3467.01	1560.53
3465.73	1582.84
3464.45	1633.37
3463.17	1665.58
3461.89	1699.53
3460.61	1718.42
3459.33	1741.32
3458.05	1781.32
3456.76	1807.16
3455.48	1861.47
3454.2	1864.84
3452.92	1916.37
3451.63	1954.42
3450.35	2003.84
3449.06	2042.47
3447.78	2075.16
3446.5	2107.47
3445.21	2162.95
3443.93	2180.32
3442.64	2206.95
3441.35	2254.42
3440.07	2265.37
3438.78	2301.26
3437.49	2348.21
3436.21	2349.42
3434.92	2380.89
3433.63	2430.05
3432.34	2451.16
3431.05	2470.21
3429.76	2525.53
3428.47	2519.79
3427.18	2563.05
3425.89	2592.42
3424.6	2620.84
3423.31	2640
3422.02	2684.42
3420.73	2661.74
3419.44	2711.11
3418.14	2702.1
3416.85	2753.95
3415.56	2776.42
3414.27	2796.16
3412.97	2847.58
3411.68	2854.58
3410.38	2873.95
3409.09	2897.89
3407.79	2893.21
3406.5	2932.53
3405.2	2968.58
3403.91	2989.95
3402.61	3001.68
3401.31	3041.16
3400.02	3049.58
3398.72	3086.53
3397.42	3130.21
3396.12	3174.16
3394.83	3189.89
3393.53	3225.21
3392.23	3262.11
3390.93	3290.21
3389.63	3302.63
3388.33	3324.47
3387.03	3358.74
3385.73	3388.42
3384.43	3399.58
3383.13	3430.89
3381.82	3478.53
3380.52	3497.74
3379.22	3495.74
3377.92	3531.84
3376.61	3563.95
3375.31	3559
3374.01	3589.79
3372.7	3592
3371.4	3621.05
3370.09	3608.79
3368.79	3630.74
3367.48	3641.74
3366.18	3672.58
3364.87	3677.47
3363.56	3696.53
3362.26	3708.05
3360.95	3738.89
3359.64	3734.79
3358.34	3756.26
3357.03	3784
3355.72	3781.32
3354.41	3800.42
3353.1	3799.05
3351.79	3810.47
3350.48	3832.84
3349.17	3837.84
3347.86	3875.16
3346.55	3925.74
3345.24	3939.26
3343.93	3951.37
3342.61	3949.68
3341.3	4042.37
3339.99	4031.58
3338.68	4059.47
3337.36	4063.68
3336.05	4136.53
3334.73	4164.42
3333.42	4165.11
3332.11	4191.32
3330.79	4236.26
3329.48	4241.95
3328.16	4264.89
3326.84	4294
3325.53	4311.84
3324.21	4327.11
3322.89	4360.95
3321.58	4404.1
3320.26	4424
3318.94	4441.11
3317.62	4479.63
3316.3	4482.58
3314.98	4504.74
3313.66	4568.53
3312.34	4569.11
3311.02	4610.58
3309.7	4609.58
3308.38	4612.11
3307.06	4629.9
3305.74	4645.58
3304.42	4636.68
3303.1	4629.47
3301.77	4661.16
3300.45	4651.42
3299.13	4669.42
3297.8	4640.42
3296.48	4707.47
3295.15	4717.37
3293.83	4756.42
3292.51	4718.47
3291.18	4774.47
3289.85	4828.16
3288.53	4875
3287.2	4940.42
3285.88	4974.26
3284.55	5042.68
3283.22	5116.95
3281.89	5173.68
3280.57	5290.26
3279.24	5377.47
3277.91	5469.79
3276.58	5581.26
3275.25	5734.1
3273.92	5867.21
3272.59	6031.74
3271.26	6222.58
3269.93	6375.16
3268.6	6585.63
3267.26	6785.26
3265.93	7067.9
3264.6	7279.58
3263.27	7537.53
3261.94	7794.11
3260.6	8065.16
3259.27	8326.32
3257.94	8697.47
3256.6	8974.21
3255.27	9252.53
3253.93	9554.05
3252.6	9857.16
3251.26	10160.9
3249.92	10412.3
3248.59	10690.5
3247.25	10949.7
3245.91	11175.5
3244.58	11402.3
3243.24	11654.2
3241.9	11790.1
3240.56	12014.1
3239.22	12154.4
3237.88	12399.7
3236.54	12502.4
3235.2	12633.5
3233.86	12752.7
3232.52	12933.1
3231.18	13051
3229.84	13087.6
3228.5	13186.5
3227.16	13268.1
3225.82	13317.6
3224.47	13406.8
3223.13	13465.6
3221.79	13513.7
3220.44	13571.9
3219.1	13594.3
3217.75	13660.8
3216.41	13661.8
3215.06	13724.2
3213.72	13815.6
3212.37	13856.3
3211.03	13901.1
3209.68	13917.6
3208.33	13996.1
3206.99	14047.7
3205.64	14099.5
3204.29	14145.9
3202.94	14241.3
3201.59	14293.1
3200.25	14355.6
3198.9	14373.8
3197.55	14464.2
3196.2	14528.6
3194.85	14536.6
3193.5	14631.9
3192.14	14711.4
3190.79	14745.4
3189.44	14860.9
3188.09	14850.3
3186.74	14985.6
3185.39	15085.4
3184.03	15155.6
3182.68	15277
3181.32	15352.8
3179.97	15417.2
3178.62	15486.9
3177.26	15556.4
3175.91	15723.1
3174.55	15802.7
3173.19	15927.1
3171.84	16029.8
3170.48	16157.2
3169.12	16255.2
3167.77	16316.6
3166.41	16405.5
3165.05	16537.8
3163.69	16592.8
3162.33	16768.9
3160.98	16804.9
3159.62	16951.7
3158.26	17038.1
3156.9	17229.2
3155.54	17253.7
3154.18	17343.5
3152.81	17484.9
3151.45	17573
3150.09	17685.2
3148.73	17808.6
3147.37	17938.1
3146	18028.9
3144.64	18191.8
3143.28	18343.5
3141.91	18444.4
3140.55	18578.9
3139.18	18721.9
3137.82	18815.5
3136.45	18948.5
3135.09	19082.8
3133.72	19193.8
3132.35	19264.8
3130.99	19355.7
3129.62	19440.4
3128.25	19513.2
3126.88	19583.3
3125.52	19620.8
3124.15	19717.1
3122.78	19734.1
3121.41	19884.9
3120.04	19903.1
3118.67	19934.5
3117.3	20065.6
3115.93	20072.7
3114.56	20144.5
3113.19	20244.8
3111.81	20240.3
3110.44	20347.4
3109.07	20413.8
3107.7	20462.6
3106.32	20532.4
3104.95	20564.6
3103.58	20567.4
3102.2	20566.5
3100.83	20605.3
3099.45	20646.5
3098.08	20654.7
3096.7	20704.1
3095.33	20711.8
3093.95	20750.3
3092.57	20781.5
3091.2	20868.2
3089.82	20948.3
3088.44	21020.6
3087.06	20966.9
3085.68	21027.8
3084.31	21008.9
3082.93	20994.8
3081.55	21016.1
3080.17	21006.8
3078.79	20957.1
3077.41	20985.9
3076.03	20987.2
3074.64	20998.9
3073.26	21046.8
3071.88	21076.2
3070.5	21135.5
3069.11	21210.8
3067.73	21273.7
3066.35	21387.6
3064.97	21405.9
3063.58	21447.8
3062.2	21570.4
3060.81	21686.4
3059.43	21803.4
3058.04	21878.8
3056.65	21970.7
3055.27	22106.2
3053.88	22158.8
3052.49	22192.6
3051.11	22316
3049.72	22353.2
3048.33	22376.2
3046.94	22419.9
3045.55	22491.4
3044.16	22595.8
3042.77	22676.8
3041.39	22785.7
3040	22797.7
3038.6	22933.3
3037.21	23043.6
3035.82	23099.3
3034.43	23150.4
3033.04	23197.3
3031.65	23256.7
3030.25	23305.8
3028.86	23296.8
3027.47	23316.6
3026.07	23411.7
3024.68	23399
3023.28	23452.9
3021.89	23477.5
3020.49	23495.7
3019.1	23502.6
3017.7	23485.4
3016.31	23557.6
3014.91	23611.3
3013.51	23619.1
3012.12	23759.4
3010.72	23745.7
3009.32	23868.4
3007.92	23916.3
3006.52	23990.2
3005.12	24070.7
3003.72	24115
3002.32	24178.6
3000.92	24244.8
2999.52	24252.5
2998.12	24313.5
2996.72	24362.2
2995.32	24450.2
2993.92	24478.4
2992.51	24629.1
2991.11	24689.9
2989.71	24815.9
2988.3	24928.1
2986.9	24974.6
2985.5	25076.7
2984.09	25216.7
2982.69	25378.1
2981.28	25518.7
2979.88	25591.1
2978.47	25713.6
2977.06	25859.5
2975.66	25941.3
2974.25	26042.7
2972.84	26184.3
2971.43	26287.7
2970.03	26330.6
2968.62	26408.8
2967.21	26534.2
2965.8	26533.1
2964.39	26624.7
2962.98	26612.2
2961.57	26688.4
2960.16	26639.2
2958.75	26777.9
2957.34	26761.5
2955.92	26847.3
2954.51	26874.7
2953.1	26898.8
2951.69	27004.9
2950.27	27122.3
2948.86	27189.3
2947.45	27232.4
2946.03	27260.4
2944.62	27288.8
2943.2	27334.5
2941.79	27396
2940.37	27346.7
2938.95	27378.1
2937.54	27422.6
2936.12	27473.8
2934.7	27394.8
2933.29	27346.7
2931.87	27405.3
2930.45	27432.9
2929.03	27481.7
2927.61	27584.2
2926.19	27558.9
2924.77	27546.1
2923.35	27535.7
2921.93	27612.1
2920.51	27561.7
2919.09	27606
2917.67	27600.8
2916.25	27567.3
2914.82	27544
2913.4	27566.4
2911.98	27528.1
2910.55	27630.4
2909.13	27618.7
2907.71	27642
2906.28	27742.1
2904.86	27796.8
2903.43	27819.6
2902.01	27865.6
2900.58	27888.7
2899.15	27952.6
2897.73	27943.9
2896.3	27972.2
2894.87	28037
2893.45	28054
2892.02	28151.1
2890.59	28182.9
2889.16	28219.7
2887.73	28308.2
2886.3	28345.7
2884.87	28350.9
2883.44	28382.7
2882.01	28374.2
2880.58	28362.2
2879.15	28405.4
2877.72	28388.3
2876.28	28484
2874.85	28465.1
2873.42	28418
2871.98	28477.4
2870.55	28489.9
2869.12	28530.9
2867.68	28578.6
2866.25	28679.6
2864.81	28704.7
2863.38	28733.7
2861.94	28765.5
2860.5	28762.4
2859.07	28781.6
2857.63	28738.9
2856.19	28772.3
2854.76	28778.5
2853.32	28763.3
2851.88	28700.3
2850.44	28726.7
2849	28722.2
2847.56	28734.7
2846.12	28652.8
2844.68	28573.1
2843.24	28653.9
2841.8	28574.2
2840.36	28559
2838.92	28559.9
2837.48	28490.5
2836.03	28413.9
2834.59	28332.3
2833.15	28434.8
2831.7	28393.2
2830.26	28320.1
2828.81	28318.6
2827.37	28367.5
2825.93	28331.3
2824.48	28284.3
2823.03	28263.7
2821.59	28122.3
2820.14	28141.8
2818.69	28130.6
2817.25	28104.8
2815.8	28122.4
2814.35	28075.1
2812.9	28118.7
2811.45	28111.2
2810.01	28077.8
2808.56	28079.6
2807.11	28059.1
2805.66	28132.4
2804.21	28204.6
2802.75	28217.6
2801.3	28203.7
2799.85	28205.1
2798.4	28192.1
2796.95	28223.6
2795.49	28288.1
2794.04	28239.8
2792.59	28285.6
2791.13	28355.7
2789.68	28337.2
2788.22	28303.9
2786.77	28429.8
2785.31	28541.5
2783.86	28509.3
2782.4	28574.1
2780.95	28634.4
2779.49	28645
2778.03	28602.7
2776.57	28608.9
2775.12	28530.8
2773.66	28501.4
2772.2	28547.8
2770.74	28509.4
2769.28	28387.8
2767.82	28405.9
2766.36	28377.2
2764.9	28456.8
2763.44	28460.8
2761.98	28493.3
2760.52	28514.8
2759.05	28502.8
2757.59	28516
2756.13	28435.7
2754.66	28353.3
2753.2	28289.9
2751.74	28251.1
2750.27	28255.3
2748.81	28245.2
2747.34	28254.9
2745.88	28144.7
2744.41	28159.8
2742.95	28085.5
2741.48	28042.2
2740.01	28084.3
2738.55	28002.6
2737.08	27966.6
2735.61	27842.9
2734.14	27779.8
2732.67	27849.4
2731.2	27807.3
2729.73	27788.2
2728.26	27870.9
2726.79	27823.9
2725.32	27913.8
2723.85	27932.2
2722.38	27893.6
2720.91	27877.6
2719.44	27728.2
2717.96	27844.4
2716.49	27855.9
2715.02	27796.7
2713.54	27793
2712.07	27777.7
2710.6	27844
2709.12	27885.9
2707.65	27944
2706.17	27966.6
2704.69	27949.3
2703.22	27940.2
2701.74	27897.5
2700.26	27846.7
2698.79	27799.9
2697.31	27778.8
2695.83	27709.8
2694.35	27655.5
2692.87	27618
2691.39	27603.5
2689.91	27485.1
2688.43	27398.2
2686.95	27411.9
2685.47	27330.4
2683.99	27322.6
2682.51	27334.5
2681.03	27102.5
2679.55	27047.8
2678.06	27012.5
2676.58	26973.6
2675.1	26962.4
2673.61	26999.6
2672.13	26951.4
2670.64	26958.6
2669.16	26885.5
2667.67	26826.3
2666.19	26934.4
2664.7	26851.6
2663.22	26921.8
2661.73	26883.3
2660.24	26830.7
2658.75	26785.4
2657.27	26815.7
2655.78	26813.7
2654.29	26774.3
2652.8	26786.6
2651.31	26618.8
2649.82	26620.4
2648.33	26537.7
2646.84	26528
2645.35	26437.5
2643.86	26420.2
2642.37	26270.8
2640.87	26193.9
2639.38	26249
2637.89	26201.2
2636.4	26095.5
2634.9	26118.9
2633.41	26034.5
2631.91	25972.3
2630.42	25840.5
2628.92	25842
2627.43	25714.1
2625.93	25769.6
2624.44	25704.4
2622.94	25615.4
2621.44	25591.8
2619.95	25574.7
2618.45	25590.1
2616.95	25477.7
2615.45	25537.7
2613.95	25564.4
2612.45	25480.4
2610.95	25372.3
2609.45	25285.8
2607.95	25299.7
2606.45	25313.6
2604.95	25261.2
2603.45	25372.8
2601.95	25388.3
2600.44	25410.9
2598.94	25424.1
2597.44	25405.6
2595.94	25492.6
2594.43	25430.6
2592.93	25342.4
2591.42	25325.9
2589.92	25326.7
2588.41	25274.8
2586.91	25217.2
2585.4	25178.6
2583.89	25142.3
2582.39	25107.4
2580.88	25160.1
2579.37	25077.2
2577.86	25018.3
2576.36	25072
2574.85	25036.7
2573.34	25025
2571.83	24980.8
2570.32	24948.9
2568.81	25010.7
2567.3	24952.3
2565.79	24974.9
2564.27	24940.6
2562.76	24776.4
2561.25	24704.1
2559.74	24626.3
2558.22	24519.6
2556.71	24358.6
2555.2	24250.4
2553.68	24134.7
2552.17	23998.3
2550.65	23969.7
2549.14	23797.3
2547.62	23739.9
2546.11	23742.6
2544.59	23586.3
2543.07	23602.7
2541.56	23527.5
2540.04	23425.7
2538.52	23418.5
2537	23378.7
2535.48	23238.7
2533.96	23151.9
2532.44	23084.3
2530.92	23002.7
2529.4	22929.2
2527.88	22910.5
2526.36	22752.1
2524.84	22635.4
2523.32	22578.6
2521.8	22513
2520.27	22401.8
2518.75	22418.1
2517.23	22369.2
2515.7	22317.5
2514.18	22260.5
2512.66	22278.3
2511.13	22121.1
2509.6	22053.7
2508.08	22085.7
2506.55	22016.3
2505.03	22032.7
2503.5	21978.1
2501.97	21990
2500.44	21904
2498.92	21898.8
2497.39	21886.7
2495.86	21905.2
2494.33	21921.1
2492.8	21863.1
2491.27	21896.7
2489.74	21871.3
2488.21	21784.8
2486.68	21660.2
2485.15	21608.2
2483.62	21562.9
2482.08	21615.1
2480.55	21463.9
2479.02	21429.6
2477.48	21360.7
2475.95	21269.8
2474.42	21229.2
2472.88	21138.4
2471.35	21079.4
2469.81	21039.5
2468.28	21040.3
2466.74	20927.8
2465.2	20892.7
2463.67	20860.4
2462.13	20804.6
2460.59	20740.4
2459.05	20675.7
2457.51	20618.6
2455.98	20586.8
2454.44	20567.4
2452.9	20500.5
2451.36	20397.3
2449.82	20311.3
2448.28	20193.6
2446.73	20133.7
2445.19	20084.9
2443.65	20062.3
2442.11	19981.9
2440.57	19901.1
2439.02	19773.6
2437.48	19734.4
2435.94	19689.9
2434.39	19654.9
2432.85	19635.6
2431.3	19624.8
2429.76	19540.1
2428.21	19521.2
2426.66	19599.8
2425.12	19538.7
2423.57	19475.5
2422.02	19524
2420.47	19457.1
2418.93	19458.7
2417.38	19398.2
2415.83	19478.9
2414.28	19422.6
2412.73	19449.7
2411.18	19462.2
2409.63	19372.4
2408.08	19339.5
2406.53	19320.6
2404.97	19344.3
2403.42	19342.8
2401.87	19306.3
2400.32	19235.2
2398.76	19187.2
2397.21	19166.9
2395.66	19082.1
2394.1	19030.8
2392.55	18954.6
2390.99	18966.4
2389.44	18817.5
2387.88	18804.1
2386.32	18795.5
2384.77	18817.4
2383.21	18736.7
2381.65	18691.8
2380.09	18673.1
2378.54	18615.8
2376.98	18571.8
2375.42	18538.4
2373.86	18546.4
2372.3	18509.1
2370.74	18476.9
2369.18	18450
2367.62	18352.2
2366.06	18296.5
2364.49	18221.8
2362.93	18174.5
2361.37	18067.9
2359.81	18130.5
2358.24	18055.2
2356.68	18091.2
2355.11	18081.7
2353.55	18025.6
2351.98	17979.8
2350.42	17944.7
2348.85	17948.7
2347.29	17959.9
2345.72	17943.9
2344.15	17939.3
2342.59	17944.2
2341.02	17975.3
2339.45	17842.5
2337.88	17877.2
2336.31	17813.5
2334.74	17777.2
2333.17	17760.5
2331.6	17627.6
2330.03	17594.8
2328.46	17577.1
2326.89	17650.7
2325.32	17585.4
2323.75	17546.1
2322.17	17514.6
2320.6	17362.8
2319.03	17376.9
2317.45	17280.4
2315.88	17265.3
2314.3	17244.9
2312.73	17265
2311.15	17207.9
2309.58	17165.5
2308	17104.2
2306.43	17177.6
2304.85	17072.8
2303.27	16991.6
2301.69	16901.6
2300.12	16914.2
2298.54	16885.7
2296.96	16791.7
2295.38	16731.9
2293.8	16702.6
2292.22	16633.1
2290.64	16619.3
2289.06	16598.8
2287.48	16550.9
2285.9	16533.9
2284.31	16448.5
2282.73	16502.9
2281.15	16451.6
2279.57	16396.2
2277.98	16340.4
2276.4	16331
2274.81	16293.5
2273.23	16316.2
2271.64	16220.9
2270.06	16224.7
2268.47	16114.9
2266.89	16020.3
2265.3	15922.8
2263.71	15911.8
2262.12	15906.8
2260.54	15806.7
2258.95	15730.1
2257.36	15752.3
2255.77	15770.7
2254.18	15657.2
2252.59	15590.7
2251	15565.4
2249.41	15551.6
2247.82	15467.3
2246.23	15329.8
2244.63	15236.6
2243.04	15186.6
2241.45	15190.2
2239.85	15195.4
2238.26	15179.3
2236.67	15068.9
2235.07	15028.1
2233.48	15001.7
2231.88	14954.8
2230.29	14903.8
2228.69	14859.5
2227.1	14827.8
2225.5	14783.5
2223.9	14837.5
2222.3	14809.7
2220.71	14785.4
2219.11	14823.9
2217.51	14763.8
2215.91	14733.7
2214.31	14707.1
2212.71	14577.9
2211.11	14511.2
2209.51	14476.3
2207.91	14461.6
2206.31	14414.4
2204.7	14403.4
2203.1	14346
2201.5	14337.8
2199.89	14364.2
2198.29	14294.3
2196.69	14281.6
2195.08	14252.6
2193.48	14202.1
2191.87	14121.2
2190.27	14083.3
2188.66	13987.8
2187.05	13991.2
2185.45	13961.8
2183.84	13896
2182.23	13907.5
2180.62	13864.8
2179.02	13838.2
2177.41	13796.8
2175.8	13801.3
2174.19	13749.1
2172.58	13734.8
2170.97	13795.8
2169.36	13716.1
2167.75	13715.8
2166.13	13631.2
2164.52	13684.5
2162.91	13588.1
2161.3	13540.3
2159.68	13493.2
2158.07	13407.6
2156.46	13356.8
2154.84	13305.1
2153.23	13243.6
2151.61	13189.8
2150	13094.6
2148.38	13077.8
2146.76	12980.9
2145.15	12949.4
2143.53	12869.1
2141.91	12845
2140.29	12791.6
2138.67	12723.5
2137.05	12662.7
2135.44	12630.1
2133.82	12618.5
2132.2	12597.3
2130.57	12600.4
2128.95	12532.9
2127.33	12553.7
2125.71	12545.8
2124.09	12545.7
2122.47	12520.6
2120.84	12427.8
2119.22	12451.8
2117.6	12414.6
2115.97	12393.4
2114.35	12354.6
2112.72	12316.1
2111.1	12316.9
2109.47	12222.4
2107.84	12253.7
2106.22	12207.6
2104.59	12228.3
2102.96	12271
2101.34	12267.6
2099.71	12211.6
2098.08	12220.2
2096.45	12146.3
2094.82	12127.2
2093.19	12058.1
2091.56	12036.5
2089.93	12000.1
2088.3	11945.4
2086.67	11913.5
2085.03	11890.7
2083.4	11848.9
2081.77	11809.3
2080.14	11774.1
2078.5	11780.2
2076.87	11777.6
2075.23	11790.5
2073.6	11759.2
2071.96	11783.1
2070.33	11801.6
2068.69	11777
2067.06	11765.2
2065.42	11708.2
2063.78	11689.4
2062.14	11704
2060.51	11684.9
2058.87	11673
2057.23	11609.4
2055.59	11580.5
2053.95	11515.8
2052.31	11491.6
2050.67	11449.1
2049.03	11371.4
2047.39	11345.3
2045.74	11257.2
2044.1	11263.5
2042.46	11247.9
2040.82	11228.6
2039.17	11181
2037.53	11178.3
2035.88	11138.9
2034.24	11081.5
2032.6	11060.4
2030.95	11064.1
2029.3	11039.9
2027.66	10983.5
2026.01	10980.3
2024.36	10872.3
2022.72	10890.1
2021.07	10872.7
2019.42	10810.8
2017.77	10825.4
2016.12	10793.5
2014.47	10783.9
2012.82	10758.5
2011.17	10720.6
2009.52	10665.9
2007.87	10657.5
2006.22	10599
2004.57	10579.3
2002.91	10553.8
2001.26	10491.9
1999.61	10477.3
1997.95	10522.6
1996.3	10410.2
1994.64	10424.6
1992.99	10346.3
1991.33	10352.8
1989.68	10327.1
1988.02	10335.4
1986.37	10295.6
1984.71	10248.2
1983.05	10248.6
1981.39	10218.8
1979.73	10178.3
1978.08	10158
1976.42	10145.5
1974.76	10120.2
1973.1	10081.6
1971.44	10075.8
1969.78	10047.2
1968.12	9988.95
1966.45	10010.3
1964.79	10005.7
1963.13	9983.63
1961.47	9900.32
1959.8	9869.79
1958.14	9849.68
1956.48	9824.37
1954.81	9826.05
1953.15	9840.95
1951.48	9829.68
1949.82	9793.84
1948.15	9823.74
1946.48	9836
1944.82	9773.79
1943.15	9785.48
1941.48	9743.68
1939.81	9664.32
1938.14	9661.79
1936.47	9615.79
1934.81	9625.26
1933.14	9613.16
1931.46	9550.16
1929.79	9479.21
1928.12	9509.89
1926.45	9477.69
1924.78	9453.9
1923.11	9406.95
1921.43	9421.63
1919.76	9399.95
1918.09	9353.37
1916.41	9317.53
1914.74	9281.26
1913.06	9297.95
1911.39	9248.89
1909.71	9208.05
1908.04	9197.26
1906.36	9169.21
1904.68	9142.16
1903.01	9130.16
1901.33	9027.32
1899.65	9072.58
1897.97	9024.32
1896.29	8970.79
1894.61	8981.11
1892.93	8879.26
1891.25	8875.74
1889.57	8856.79
1887.89	8881.05
1886.21	8838.32
1884.53	8850.16
1882.84	8801.42
1881.16	8749.53
1879.48	8748.37
1877.79	8784
1876.11	8718.11
1874.43	8663.58
1872.74	8645.11
1871.06	8632.63
1869.37	8592.63
1867.68	8567.11
1866	8547.58
1864.31	8591.42
1862.62	8532.42
1860.94	8527.1
1859.25	8494.89
1857.56	8477.9
1855.87	8479.84
1854.18	8515.05
1852.49	8471.37
1850.8	8411.16
1849.11	8359.63
1847.42	8370.32
1845.73	8346.63
1844.03	8347.47
1842.34	8345.68
1840.65	8323.58
1838.95	8293.37
1837.26	8299.58
1835.57	8304.32
1833.87	8314.32
1832.18	8287.58
1830.48	8290.79
1828.79	8234.37
1827.09	8278.63
1825.39	8233.26
1823.7	8227.37
1822	8265
1820.3	8187.79
1818.6	8172.16
1816.9	8186.63
1815.2	8140.1
1813.5	8070.79
1811.8	8085.84
1810.1	8035.26
1808.4	8023
1806.7	7975.26
1805	7956.68
1803.3	7956.47
1801.59	7896.53
1799.89	7878.95
1798.19	7804.32
1796.48	7832.74
1794.78	7762.68
1793.07	7777.16
1791.37	7738.05
1789.66	7774.68
1787.96	7793.21
1786.25	7718.47
1784.54	7765.32
1782.84	7797.53
1781.13	7780.32
1779.42	7771.95
1777.71	7783.95
1776	7779.26
1774.29	7777.89
1772.58	7767.89
1770.87	7779.11
1769.16	7759.16
1767.45	7772.63
1765.74	7799.63
1764.03	7799.26
1762.32	7841.58
1760.6	7760.32
1758.89	7749.74
1757.18	7750.42
1755.46	7772.79
1753.75	7780.63
1752.03	7773.53
1750.32	7749.32
1748.6	7764.95
1746.89	7763.47
1745.17	7735.21
1743.45	7754.53
1741.74	7694.16
1740.02	7697.95
1738.3	7714.32
1736.58	7674.47
1734.86	7698.79
1733.14	7674.47
1731.42	7646.47
1729.7	7666.05
1727.98	7631.21
1726.26	7618.63
1724.54	7596.68
1722.81	7574.68
1721.09	7538.58
1719.37	7545.05
1717.65	7503
1715.92	7490.42
1714.2	7465.42
1712.47	7418.11
1710.75	7401.63
1709.02	7418.37
1707.29	7359
1705.57	7372.47
1703.84	7338.42
1702.11	7337.37
1700.39	7354.68
1698.66	7289.63
1696.93	7311.26
1695.2	7263.21
1693.47	7239.26
1691.74	7246.53
1690.01	7201.32
1688.28	7185.84
1686.55	7147.84
1684.82	7200.47
1683.08	7215.26
1681.35	7186.68
1679.62	7155.79
1677.89	7230.16
1676.15	7212.9
1674.42	7193.79
1672.68	7169.11
1670.95	7186.05
1669.21	7151.68
1667.48	7209.21
1665.74	7173.37
1664	7208.63
1662.27	7166.47
1660.53	7203.26
1658.79	7173.05
1657.05	7195.79
1655.31	7156.9
1653.57	7185.26
1651.83	7127.37
1650.09	7171.9
1648.35	7158.58
1646.61	7152
1644.87	7122.89
1643.13	7119.42
1641.39	7137.16
1639.64	7135.74
1637.9	7123.05
1636.16	7144.16
1634.41	7153.63
1632.67	7204.26
1630.92	7195
1629.18	7204.42
1627.43	7239.58
1625.68	7264.16
1623.94	7269.26
1622.19	7306.1
1620.44	7340.47
1618.69	7377.68
1616.95	7450.89
1615.2	7481.26
1613.45	7499.53
1611.7	7520.63
1609.95	7510.95
1608.2	7578.16
1606.45	7630
1604.69	7631.79
1602.94	7642.74
1601.19	7684.21
1599.44	7725.16
1597.68	7711.42
1595.93	7750.47
1594.18	7724.42
1592.42	7738.21
1590.67	7742.26
1588.91	7767.89
1587.16	7736.47
1585.4	7755.05
1583.64	7774.95
1581.89	7787.47
1580.13	7791.68
1578.37	7732.21
1576.61	7762.47
1574.85	7748.95
1573.09	7736.05
1571.33	7671.11
1569.57	7628.63
1567.81	7637.11
1566.05	7576.11
1564.29	7543
1562.53	7470.79
1560.77	7496.74
1559	7427.79
1557.24	7405.37
1555.47	7367.32
1553.71	7314.05
1551.95	7312.84
1550.18	7285.9
1548.42	7196.53
1546.65	7177.1
1544.88	7120.58
1543.12	7117.32
1541.35	7095.95
1539.58	7035
1537.81	7025.84
1536.05	6995.37
1534.28	6979.05
1532.51	6937.32
1530.74	6925.26
1528.97	6915.47
1527.2	6899.79
1525.43	6895.37
1523.65	6880
1521.88	6843.37
1520.11	6861.79
1518.34	6841.95
1516.56	6855.63
1514.79	6803.53
1513.01	6836.53
1511.24	6812.05
1509.46	6793.21
1507.69	6778.58
1505.91	6759
1504.14	6770.42
1502.36	6779.9
1500.58	6753.79
1498.8	6720.42
1497.03	6741.21
1495.25	6713.1
1493.47	6754.37
1491.69	6724.16
1489.91	6714.05
1488.13	6675.21
1486.35	6624.53
1484.57	6697.42
1482.79	6627.89
1481	6631.26
1479.22	6631.16
1477.44	6647.47
1475.65	6627.21
1473.87	6634.79
1472.09	6658.74
1470.3	6586.53
1468.52	6586.31
1466.73	6595.42
1464.94	6600.58
1463.16	6571
1461.37	6535.32
1459.58	6571.79
1457.79	6543.21
1456.01	6513.63
1454.22	6530.84
1452.43	6541.42
1450.64	6500.32
1448.85	6557.68
1447.06	6512.47
1445.27	6497.74
1443.48	6535.58
1441.68	6483.16
1439.89	6510.95
1438.1	6546.79
1436.31	6518.74
1434.51	6487.16
1432.72	6534.32
1430.92	6532.84
1429.13	6569.63
1427.33	6559.74
1425.54	6547.79
1423.74	6590.42
1421.94	6562.95
1420.15	6583.74
1418.35	6562.42
1416.55	6547.47
1414.75	6579.16
1412.95	6625.32
1411.15	6622.32
1409.35	6612.16
1407.55	6634.21
1405.75	6612.21
1403.95	6637.11
1402.15	6645.32
1400.35	6645.53
1398.54	6655.89
1396.74	6667.74
1394.94	6678.26
1393.13	6706.1
1391.33	6704.32
1389.52	6695.68
1387.72	6713.37
1385.91	6745.16
1384.11	6783.68
1382.3	6753.79
1380.49	6749
1378.69	6788.47
1376.88	6838.16
1375.07	6840.37
1373.26	6871.63
1371.45	6850.47
1369.64	6883.63
1367.83	6908.9
1366.02	6940.79
1364.21	6966.95
1362.4	6957.47
1360.59	7008.95
1358.77	7023.21
1356.96	7094.79
1355.15	7078.53
1353.33	7130.1
1351.52	7172.74
1349.71	7224.84
1347.89	7209.26
1346.08	7250.84
1344.26	7256.37
1342.44	7300.37
1340.63	7342.89
1338.81	7349.53
1336.99	7424.47
1335.17	7422.37
1333.35	7419.1
1331.54	7450.11
1329.71	7462.68
1327.9	7499.42
1326.07	7519.84
1324.25	7540.21
1322.43	7568.21
1320.61	7621.42
1318.79	7637.47
1316.97	7674.84
1315.14	7635.79
1313.32	7632.68
1311.49	7633.79
1309.67	7612.05
1307.85	7573.95
1306.02	7577.95
1304.19	7581.79
1302.37	7587.37
1300.54	7567.16
1298.71	7569.95
1296.89	7496.74
1295.06	7447.32
1293.23	7420.53
1291.4	7388.1
1289.57	7354
1287.74	7345.89
1285.91	7272.05
1284.08	7243.11
1282.25	7186.84
1280.42	7122.79
1278.58	7135.37
1276.75	7020.05
1274.92	7019.68
1273.08	6988.16
1271.25	6906.47
1269.42	6852.89
1267.58	6823.58
1265.75	6779.74
1263.91	6779.53
1262.07	6737.79
1260.24	6699.05
1258.4	6672.42
1256.56	6667.74
1254.72	6588.21
1252.88	6553.89
1251.05	6533.53
1249.21	6531.21
1247.37	6451.68
1245.53	6465.26
1243.69	6423.16
1241.84	6405.16
1240	6376.53
1238.16	6323.58
1236.32	6339.68
1234.47	6289.84
1232.63	6293.68
1230.79	6226.26
1228.94	6218.9
1227.1	6182.05
1225.25	6168.32
1223.41	6102.21
1221.56	6124.74
1219.71	6062.26
1217.87	6059.26
1216.02	6044.05
1214.17	6020.63
1212.32	6006.74
1210.47	5987.89
1208.62	5950.74
1206.77	5895.53
1204.92	5932
1203.07	5925.79
1201.22	5890.32
1199.37	5871.84
1197.52	5884.74
1195.66	5887.89
1193.81	5850
1191.96	5828.58
1190.1	5848.74
1188.25	5833.89
1186.39	5794.95
1184.54	5789
1182.68	5830.16
1180.83	5802.47
1178.97	5795.58
1177.11	5766.42
1175.25	5793
1173.4	5766.42
1171.54	5738.63
1169.68	5714.26
1167.82	5691.26
1165.96	5721.47
1164.1	5717.26
1162.24	5699.58
1160.38	5697.37
1158.51	5679.32
1156.65	5647.26
1154.79	5680.05
1152.93	5645.95
1151.06	5648.26
1149.2	5646.58
1147.33	5620.47
1145.47	5597.53
1143.6	5608.95
1141.74	5625.47
1139.87	5599.69
1138	5632.68
1136.13	5623.32
1134.27	5605.79
1132.4	5589.84
1130.53	5529.63
1128.66	5551.05
1126.79	5536.26
1124.92	5534
1123.05	5541.05
1121.18	5488.37
1119.31	5437.1
1117.44	5440.63
1115.56	5458.47
1113.69	5439.63
1111.82	5377.47
1109.94	5413.84
1108.07	5416.74
1106.19	5401.32
1104.32	5369
1102.44	5391.74
1100.57	5352.68
1098.69	5321.95
1096.81	5287.26
1094.94	5343.37
1093.06	5309.16
1091.18	5262.26
1089.3	5272.16
1087.42	5235
1085.54	5268.16
1083.66	5258.74
1081.78	5270.11
1079.9	5251.53
1078.02	5219.84
1076.13	5206.37
1074.25	5189.05
1072.37	5215.32
1070.49	5207.32
1068.6	5244.26
1066.72	5211.89
1064.83	5194.05
1062.95	5231.05
1061.06	5210.1
1059.17	5158.37
1057.29	5229.42
1055.4	5195.37
1053.51	5186.9
1051.62	5221.21
1049.74	5184.26
1047.85	5220.37
1045.96	5204.95
1044.07	5196.37
1042.18	5185.37
1040.29	5142.37
1038.39	5189.05
1036.5	5182.53
1034.61	5200.69
1032.72	5165.79
1030.82	5141.9
1028.93	5127.11
1027.03	5169.84
1025.14	5138.74
1023.24	5135.58
1021.35	5110.26
1019.45	5139.89
1017.56	5105.9
1015.66	5128.9
1013.76	5125.74
1011.86	5127.32
1009.97	5165.47
1008.07	5153.26
1006.17	5143.63
1004.27	5164.26
1002.37	5142.42
1000.47	5134.42
998.564	5171.63
996.662	5158.32
994.76	5146.47
992.857	5145.16
990.954	5171.21
989.05	5147.79
987.147	5190.1
985.242	5210.05
983.337	5175.84
981.431	5184.05
979.525	5157.47
977.619	5212.84
975.712	5193.11
973.805	5191.68
971.897	5182.32
969.988	5175.79
968.079	5200.79
966.171	5222.47
964.261	5175.74
962.35	5199.79
960.44	5202.84
958.528	5145.79
956.617	5185.47
954.704	5219.58
952.792	5210.95
950.879	5233.26
948.966	5227.79
947.052	5222.9
945.137	5182.32
943.222	5161.58
941.307	5206.58
939.391	5210.79
937.474	5186.47
935.557	5208.05
933.64	5243.53
931.722	5219.84
929.804	5213.63
927.886	5198.58
925.967	5179.89
924.047	5177.05
922.127	5136.42
920.206	5129.58
918.285	5157.58
916.364	5147.84
914.441	5107.11
912.519	5157.84
910.596	5160.37
908.672	5139.32
906.748	5136.79
904.824	5125.95
902.899	5134
900.974	5160.47
899.047	5135.16
897.122	5156.79
895.195	5166.79
893.267	5153
891.34	5120
889.412	5117.79
887.483	5154.47
885.554	5125.63
883.624	5157.9
881.694	5137.68
879.764	5087.42
877.832	5101.21
875.901	5106.58
873.969	5127.1
872.036	5120.05
870.103	5098
868.17	5101.05
866.236	5117.47
864.301	5129.42
862.367	5101.32
860.432	5117.89
858.496	5094.9
856.559	5100.11
854.623	5101.79
852.685	5103.58
850.747	5108.26
848.809	5096.05
846.87	5080.53
844.932	5101.37
842.992	5067.79
841.052	5079.95
839.111	5088.32
837.17	5092.63
835.228	5068.53
833.287	5079.05
831.344	5057.32
829.401	5062.79
827.457	5072.68
825.513	5048.58
823.57	5018.42
821.624	5030.37
819.679	5048.11
817.733	5068.47
815.787	5050
813.84	5011.42
811.893	4989.95
809.945	5060
807.997	5022.74
806.048	5026.63
804.099	5031.63
802.149	5027.84
800.199	5030.79
798.249	5024.84
796.298	5022.47
794.346	4983.26
792.394	5012.26
790.441	5000.42
788.488	4985.05
786.535	4971.9
784.581	4974.63
782.626	4965.47
780.671	4995.58
778.716	4994.21
776.759	4988.47
774.803	4984.37
772.846	4964.84
770.888	4991.74
768.931	4997.16
766.972	4988.74
765.014	4995.79
763.054	5008.95
761.094	4990.1
759.135	4988.05
757.173	4984.42
755.213	4996.32
753.251	4984.1
751.289	4945.53
749.326	4986.37
747.362	4971.37
745.399	4987.21
743.435	4987.68
741.47	4990.42
739.505	4998.42
737.539	4988.79
735.574	5018.89
733.606	4989.58
731.64	5003.37
729.672	4994.79
727.704	4999.47
725.736	5001.05
723.767	4982.63
721.797	4979.26
719.827	5014.53
717.856	4966.68
715.886	4970.95
713.914	4986.16
711.943	4990.74
709.97	4990.21
707.997	4989.26
706.024	4990.26
704.051	4996.84
702.076	4992.84
700.101	4994.9
698.126	5015.26
696.15	4987.84
694.174	4987.21
692.197	5004.84
690.22	4974.42
688.242	5017.84
686.264	4973.89
684.285	4985.95
682.306	5009.89
680.326	5006
678.346	5015.26
676.365	5027.05
674.384	4998
672.403	4987.79
670.421	5038.68
668.438	5017.63
666.455	4987.1
664.471	5022.79
662.487	5016
660.503	5038.26
658.517	5057.58
656.532	5057.37
654.546	5055.26
652.559	5048.63
650.573	5046.16
648.585	5080.1
646.597	5075.95
644.609	5078.89
642.62	5119.95
640.631	5091.05
638.64	5122.63
636.65	5123.11
634.659	5118.74
632.668	5114.26
630.676	5152.05
628.683	5097.37
626.691	5138.21
624.697	5106.47
622.703	5111.32
620.709	5101.74
618.714	5140
616.719	5127.47
614.723	5161.84
612.727	5099.53
610.73	5124.37
608.733	5157.58
606.734	5149
604.737	5153.21
602.738	5138.74
600.739	5137.63
598.739	5105.47
596.739	5129
594.738	5132.16
592.737	5132
590.735	5115.58
588.733	5115.79
586.73	5147.11
584.727	5111.84
582.724	5140.37
580.719	5150.53
578.715	5151.37
576.709	5162.42
574.703	5175.58
572.697	5154.58
570.691	5131.9
568.684	5146.37
566.676	5159.21
564.667	5158.16
562.659	5129.05
560.65	5146.74
558.641	5154.42
556.631	5133.63
554.62	5176.05
552.609	5147.68
550.597	5197.21
548.585	5180.53
546.572	5199.58
544.559	5228.84
542.546	5197.37
540.532	5233.9
538.517	5217.37
536.502	5281.95
534.487	5278.05
532.471	5296.42
530.454	5346.95
528.437	5481.37
526.419	5742.16
524.401	6398.63
522.383	7537.84
520.364	8721.26
518.344	8607.84
516.325	7538.21
514.304	6487.37
512.283	5881.79
510.261	5568.47
508.239	5404.79
506.217	5338.37
504.194	5323.58
502.17	5304.53
500.146	5268.42
498.122	5262.05
496.097	5229.84
494.072	5214.68
492.045	5226.37
490.019	5189.53
487.992	5230.58
485.964	5221.53
483.936	5214.63
481.908	5236
479.879	5219.21
477.849	5220.16
475.82	5222.31
473.789	5204.58
471.758	5188.79
469.727	5183.42
467.694	5182.79
465.662	5214.74
463.629	5183.58
461.595	5172.68
459.562	5213.68
457.527	5170.47
455.493	5180.37
453.456	5122.47
451.421	5179.32
449.384	5186.68
447.348	5172.26
445.31	5170.21
443.272	5166.79
441.234	5161.26
439.195	5160.42
437.155	5181.84
435.115	5171.84
433.074	5201.95
431.034	5157.68
428.992	5153.42
426.95	5199.63
424.907	5168
422.865	5167.89
420.82	5166.21
418.776	5159.89
416.733	5160.37
414.687	5152.95
412.641	5146.21
410.596	5175.32
408.549	5180.37
406.502	5189.9
404.454	5188.95
402.407	5206.32
400.358	5168.42
398.309	5194.53
396.259	5199.1
394.21	5211.05
392.159	5205.79
390.108	5210.79
388.056	5211.47
386.004	5206.95
383.951	5234.74
381.899	5206.37
379.845	5210
377.791	5215
375.736	5202.42
373.681	5183.21
371.626	5208.21
369.569	5218.37
367.513	5194.74
365.456	5193.53
363.398	5206.79
361.34	5188.74
359.281	5207.9
357.222	5160.42
355.163	5184.58
353.102	5148.63
351.042	5179.95
348.981	5185.32
346.919	5179.21
344.857	5176.26
342.794	5182.42
340.731	5196.42
338.667	5158.21
336.603	5167.47
334.538	5178.53
332.473	5200.42
330.407	5207.79
328.341	5203.16
326.274	5196
324.207	5172
322.14	5258.79
320.071	5209.47
318.002	5210
315.932	5209.95
313.863	5244.79
311.793	5250.68
309.722	5275.37
307.65	5281.89
305.579	5278.05
303.506	5337.68
301.433	5309.53
299.36	5286.84
297.286	5270.21
295.212	5230.42
293.136	5245.26
291.061	5170.53
288.985	5187.05
286.909	5152.63
284.832	5120.95
282.754	5137.21
280.677	5094.32
278.598	5128.58
276.519	5069.84
274.44	5104.47
272.36	5071.63
270.279	5058.37
268.198	5052.63
266.117	5076.53
264.034	5100.9
261.952	5098.84
259.869	5081.58
257.785	5098.26
255.701	5084.53
253.617	5107.53
251.531	5089.63
249.446	5088.37
247.36	5132.95
245.273	5114.26
243.186	5091.68
241.098	5082.21
239.01	5092.47
236.922	5114.32
234.832	5095.05
232.742	5064.84
230.652	5102.11
228.561	5059.26
226.47	5108.68
224.378	5067.53
222.286	5025.05
220.193	5022.05
218.1	5012.16
216.005	4984.79
213.911	4973.79
211.817	4947.89
209.721	4935.21
207.625	4878.26
205.528	4880.21
203.432	4890.37
201.334	4867.05
199.236	4885.9
197.138	4832.16
195.039	4827.63
192.939	4822.1
190.839	4810.68
188.739	4760.95
186.637	4791.95
184.536	4797.63
182.434	4761.74
180.331	4809.53
178.228	4828.79
176.124	4785.95
174.02	4791.79
171.915	4809
169.81	4810.37
167.704	4818.32
165.598	4858.26
163.491	4868.79
161.384	4873.63
159.276	4922.26
157.167	4912.9
155.059	4899.32
152.949	4968.95
150.839	4903.53
148.729	4934.63
146.618	4940.42
144.507	4993.26
142.395	5034.68
140.282	5003.37
138.169	5034.58
136.056	5038.26
133.941	5038.95
131.827	5088.47
129.712	5134.79
127.597	5135.84
125.48	5155.53
123.364	5208.05
121.247	5167.9
119.128	5200.47
117.01	5213.74
114.891	5256.9
112.773	5324.05
110.653	5323.74
108.533	5349.53
106.412	5368.11
104.29	5352.42
102.168	5372.21
100.046	5437.47
97.9229	5467.53
95.7996	5484
93.6756	5462.9
91.5508	5427.84
89.4264	5243.53
87.3012	4903.63
85.1743	4427.37
83.0487	3866.16
80.9213	3220.32
78.7933	2597.32
76.6655	1973.37
74.537	1444
72.4078	1034.68
70.2778	734.632
68.1472	516.105
66.0168	380.316
63.8857	264.947
61.7539	210.105
59.6214	177.842
57.4881	135.211
55.3551	143.263
53.2214	113.316
51.087	100.789
48.9518	93.1053
