##TITLE=No Description
##DATA TYPE=INFRARED SPECTRUM
##XUNITS=1/CM
##YUNITS=%T
399.452061  	87.155104 
400.888939  	81.905287 
402.325817  	81.050433 
403.762695  	80.945445 
405.199573  	80.910098 
406.636451  	83.144670 
408.073328  	83.116758 
409.510206  	81.772532 
410.947084  	82.092463 
412.383962  	82.897380 
413.820840  	83.438913 
415.257718  	82.026259 
416.694596  	80.418750 
418.131474  	81.220610 
419.568352  	82.760525 
421.005230  	83.121552 
422.442108  	82.770269 
423.878986  	82.180806 
425.315863  	82.777694 
426.752741  	82.554373 
428.189619  	82.387482 
429.626497  	83.394648 
431.063375  	82.317024 
432.500253  	81.044326 
433.937131  	82.087213 
435.374009  	82.435430 
436.810887  	82.196979 
438.247765  	82.570376 
439.684643  	82.883602 
441.121521  	83.004983 
442.558398  	82.382203 
443.995276  	82.321294 
445.432154  	83.215857 
446.869032  	83.137305 
448.305910  	82.611593 
449.742788  	82.532024 
451.179666  	82.516861 
452.616544  	82.675195 
454.053422  	82.649390 
455.490300  	82.720931 
456.927178  	83.005965 
458.364056  	82.650923 
459.800933  	82.483718 
461.237811  	82.783297 
462.674689  	83.002771 
464.111567  	82.709120 
465.548445  	81.767282 
466.985323  	81.629066 
468.422201  	82.826499 
469.859079  	83.595599 
471.295957  	83.738156 
472.732835  	83.363351 
474.169713  	82.964596 
475.606591  	83.089564 
477.043469  	82.980023 
478.480346  	83.054165 
479.917224  	83.383781 
481.354102  	82.820526 
482.790980  	82.400400 
484.227858  	82.867473 
485.664736  	83.093664 
487.101614  	83.273636 
488.538492  	83.617848 
489.975370  	83.578241 
491.412248  	83.246730 
492.849126  	82.897416 
494.286004  	82.729438 
495.722881  	82.861057 
497.159759  	83.058433 
498.596637  	82.981788 
500.033515  	82.800376 
501.470393  	83.058861 
502.907271  	83.375259 
504.344149  	83.441067 
505.781027  	83.818772 
507.217905  	83.869707 
508.654783  	83.316102 
510.091661  	83.238788 
511.528539  	83.446327 
512.965416  	83.426331 
514.402294  	83.392467 
515.839172  	83.422694 
517.276050  	83.574315 
518.712928  	83.591449 
520.149806  	83.492243 
521.586684  	83.535299 
523.023562  	83.297464 
524.460440  	83.136757 
525.897318  	83.534028 
527.334196  	83.625956 
528.771074  	83.496441 
530.207951  	83.679381 
531.644829  	83.772498 
533.081707  	83.785898 
534.518585  	83.859436 
535.955463  	83.887824 
537.392341  	83.961838 
538.829219  	83.938808 
540.266097  	83.810510 
541.702975  	83.812920 
543.139853  	83.890649 
544.576731  	83.847592 
546.013609  	83.633457 
547.450486  	83.655347 
548.887364  	83.877122 
550.324242  	83.754516 
551.761120  	83.718004 
553.197998  	84.010643 
554.634876  	84.078707 
556.071754  	84.091330 
557.508632  	84.199259 
558.945510  	84.141152 
560.382388  	84.084837 
561.819266  	84.134920 
563.256144  	84.286158 
564.693021  	84.371845 
566.129899  	84.187139 
567.566777  	84.125733 
569.003655  	84.203992 
570.440533  	84.092579 
571.877411  	84.142022 
573.314289  	84.366245 
574.751167  	84.373840 
576.188045  	84.242783 
577.624923  	84.201094 
579.061801  	84.278615 
580.498679  	84.310529 
581.935556  	84.254622 
583.372434  	84.237948 
584.809312  	84.164736 
586.246190  	84.169096 
587.683068  	84.298557 
589.119946  	84.176755 
590.556824  	84.041039 
591.993702  	84.236230 
593.430580  	84.403711 
594.867458  	84.373792 
596.304336  	84.295465 
597.741214  	84.367744 
599.178091  	84.606327 
600.614969  	84.612781 
602.051847  	84.453495 
603.488725  	84.515270 
604.925603  	84.707540 
606.362481  	84.821346 
607.799359  	84.761254 
609.236237  	84.625358 
610.673115  	84.724909 
612.109993  	84.910120 
613.546871  	84.927180 
614.983749  	84.897565 
616.420626  	84.904167 
617.857504  	85.036943 
619.294382  	85.222990 
620.731260  	85.296761 
622.168138  	85.372447 
623.605016  	85.464562 
625.041894  	85.523475 
626.478772  	85.584627 
627.915650  	85.601656 
629.352528  	85.674622 
630.789406  	85.890209 
632.226284  	85.968244 
633.663161  	86.002788 
635.100039  	86.044191 
636.536917  	86.056620 
637.973795  	86.102898 
639.410673  	86.103591 
640.847551  	86.052686 
642.284429  	86.023053 
643.721307  	86.091327 
645.158185  	86.174628 
646.595063  	86.248807 
648.031941  	86.323953 
649.468819  	86.367103 
650.905696  	86.353598 
652.342574  	86.344344 
653.779452  	86.380062 
655.216330  	86.402409 
656.653208  	86.449630 
658.090086  	86.507382 
659.526964  	86.507098 
660.963842  	86.546141 
662.400720  	86.671434 
663.837598  	86.749927 
665.274476  	86.800835 
666.711354  	86.949386 
668.148231  	86.855648 
669.585109  	86.776722 
671.021987  	86.811389 
672.458865  	86.937930 
673.895743  	86.936142 
675.332621  	86.900096 
676.769499  	86.948444 
678.206377  	86.962772 
679.643255  	86.911879 
681.080133  	86.914423 
682.517011  	86.993064 
683.953889  	87.150680 
685.390766  	87.291110 
686.827644  	87.302791 
688.264522  	87.256949 
689.701400  	87.254221 
691.138278  	87.318619 
692.575156  	87.391598 
694.012034  	87.431920 
695.448912  	87.459402 
696.885790  	87.461564 
698.322668  	87.458386 
699.759546  	87.495474 
701.196424  	87.549374 
702.633301  	87.604586 
704.070179  	87.657315 
705.507057  	87.714076 
706.943935  	87.790809 
708.380813  	87.846736 
709.817691  	87.882634 
711.254569  	87.902857 
712.691447  	87.889341 
714.128325  	87.929800 
715.565203  	88.022139 
717.002081  	88.092360 
718.438959  	88.109818 
719.875837  	88.084446 
721.312714  	88.086063 
722.749592  	88.140616 
724.186470  	88.142072 
725.623348  	88.105761 
727.060226  	88.219939 
728.497104  	88.290305 
729.933982  	88.310659 
731.370860  	88.370362 
732.807738  	88.325281 
734.244616  	88.302203 
735.681494  	88.410536 
737.118372  	88.478214 
738.555249  	88.514096 
739.992127  	88.541685 
741.429005  	88.546388 
742.865883  	88.645902 
744.302761  	88.708998 
745.739639  	88.611212 
747.176517  	88.553360 
748.613395  	88.611442 
750.050273  	88.724791 
751.487151  	88.846305 
752.924029  	88.879676 
754.360907  	88.850193 
755.797784  	88.829324 
757.234662  	88.835919 
758.671540  	88.914046 
760.108418  	89.003609 
761.545296  	89.026071 
762.982174  	89.010228 
764.419052  	88.995129 
765.855930  	89.041405 
767.292808  	89.088143 
768.729686  	89.015946 
770.166564  	88.988193 
771.603442  	89.106603 
773.040319  	89.159618 
774.477197  	89.127803 
775.914075  	89.183178 
777.350953  	89.283352 
778.787831  	89.310842 
780.224709  	89.276579 
781.661587  	89.242742 
783.098465  	89.266973 
784.535343  	89.365250 
785.972221  	89.452824 
787.409099  	89.435462 
788.845977  	89.368117 
790.282854  	89.358592 
791.719732  	89.381022 
793.156610  	89.389559 
794.593488  	89.411454 
796.030366  	89.423788 
797.467244  	89.420549 
798.904122  	89.479302 
800.341000  	89.576894 
801.777878  	89.623753 
803.214756  	89.636994 
804.651634  	89.651348 
806.088512  	89.664899 
807.525389  	89.678517 
808.962267  	89.678770 
810.399145  	89.677557 
811.836023  	89.688656 
813.272901  	89.706430 
814.709779  	89.751452 
816.146657  	89.770123 
817.583535  	89.726765 
819.020413  	89.727402 
820.457291  	89.756075 
821.894169  	89.744248 
823.331047  	89.780269 
824.767924  	89.843256 
826.204802  	89.846547 
827.641680  	89.830745 
829.078558  	89.823926 
830.515436  	89.876656 
831.952314  	89.966346 
833.389192  	89.960505 
834.826070  	89.935904 
836.262948  	89.962913 
837.699826  	89.932458 
839.136704  	89.895416 
840.573582  	89.918569 
842.010459  	89.931703 
843.447337  	89.941643 
844.884215  	89.979628 
846.321093  	90.040534 
847.757971  	90.081307 
849.194849  	90.063984 
850.631727  	90.059095 
852.068605  	90.070540 
853.505483  	90.057182 
854.942361  	90.076976 
856.379239  	90.107035 
857.816117  	90.120085 
859.252994  	90.151635 
860.689872  	90.154202 
862.126750  	90.131530 
863.563628  	90.107765 
865.000506  	90.081853 
866.437384  	90.108761 
867.874262  	90.111350 
869.311140  	90.057217 
870.748018  	90.082348 
872.184896  	90.135279 
873.621774  	90.155135 
875.058652  	90.181139 
876.495529  	90.141050 
877.932407  	90.109978 
879.369285  	90.193172 
880.806163  	90.236712 
882.243041  	90.174265 
883.679919  	90.132102 
885.116797  	90.178505 
886.553675  	90.236660 
887.990553  	90.230063 
889.427431  	90.237776 
890.864309  	90.252031 
892.301187  	90.209738 
893.738064  	90.217613 
895.174942  	90.226868 
896.611820  	90.149164 
898.048698  	90.150563 
899.485576  	90.231254 
900.922454  	90.243782 
902.359332  	90.209103 
903.796210  	90.171666 
905.233088  	90.160375 
906.669966  	90.167490 
908.106844  	90.123701 
909.543722  	90.049773 
910.980599  	90.012883 
912.417477  	90.028564 
913.854355  	90.023026 
915.291233  	89.937419 
916.728111  	89.885383 
918.164989  	89.891716 
919.601867  	89.845801 
921.038745  	89.792618 
922.475623  	89.770186 
923.912501  	89.729839 
925.349379  	89.694493 
926.786257  	89.660712 
928.223134  	89.597539 
929.660012  	89.522825 
931.096890  	89.470210 
932.533768  	89.454463 
933.970646  	89.441457 
935.407524  	89.418444 
936.844402  	89.364197 
938.281280  	89.264688 
939.718158  	89.225227 
941.155036  	89.251977 
942.591914  	89.239750 
944.028792  	89.189705 
945.465670  	89.117069 
946.902547  	89.063226 
948.339425  	89.030772 
949.776303  	88.945881 
951.213181  	88.909241 
952.650059  	88.923287 
954.086937  	88.848376 
955.523815  	88.800516 
956.960693  	88.804052 
958.397571  	88.747606 
959.834449  	88.711222 
961.271327  	88.681959 
962.708205  	88.628169 
964.145082  	88.606561 
965.581960  	88.554142 
967.018838  	88.509263 
968.455716  	88.508341 
969.892594  	88.454736 
971.329472  	88.409494 
972.766350  	88.392713 
974.203228  	88.337661 
975.640106  	88.320188 
977.076984  	88.350852 
978.513862  	88.376560 
979.950740  	88.403704 
981.387617  	88.432788 
982.824495  	88.467307 
984.261373  	88.470049 
985.698251  	88.445743 
987.135129  	88.458086 
988.572007  	88.461782 
990.008885  	88.433331 
991.445763  	88.405192 
992.882641  	88.356749 
994.319519  	88.307146 
995.756397  	88.272399 
997.193275  	88.251630 
998.630152  	88.249859 
1000.067030  	88.208414 
1001.503908  	88.139414 
1002.940786  	88.110630 
1004.377664  	88.106598 
1005.814542  	88.087983 
1007.251420  	88.030523 
1008.688298  	87.987461 
1010.125176  	87.967626 
1011.562054  	87.857211 
1012.998932  	87.716877 
1014.435810  	87.649510 
1015.872687  	87.590749 
1017.309565  	87.534506 
1018.746443  	87.476421 
1020.183321  	87.405126 
1021.620199  	87.355926 
1023.057077  	87.268169 
1024.493955  	87.165536 
1025.930833  	87.114169 
1027.367711  	87.074432 
1028.804589  	87.092041 
1030.241467  	87.111055 
1031.678345  	87.015369 
1033.115222  	86.929444 
1034.552100  	86.929278 
1035.988978  	86.953464 
1037.425856  	86.951527 
1038.862734  	86.904324 
1040.299612  	86.897866 
1041.736490  	86.908250 
1043.173368  	86.860094 
1044.610246  	86.833518 
1046.047124  	86.813599 
1047.484002  	86.814121 
1048.920880  	86.896730 
1050.357757  	86.934228 
1051.794635  	86.943791 
1053.231513  	86.994045 
1054.668391  	86.987245 
1056.105269  	86.976862 
1057.542147  	87.009213 
1058.979025  	87.036209 
1060.415903  	87.086915 
1061.852781  	87.125307 
1063.289659  	87.161007 
1064.726537  	87.222162 
1066.163415  	87.232653 
1067.600292  	87.238813 
1069.037170  	87.291559 
1070.474048  	87.352896 
1071.910926  	87.409752 
1073.347804  	87.408595 
1074.784682  	87.388380 
1076.221560  	87.418729 
1077.658438  	87.468178 
1079.095316  	87.551089 
1080.532194  	87.595647 
1081.969072  	87.582045 
1083.405950  	87.673093 
1084.842827  	87.779687 
1086.279705  	87.763709 
1087.716583  	87.763638 
1089.153461  	87.838730 
1090.590339  	87.920453 
1092.027217  	87.973475 
1093.464095  	88.007715 
1094.900973  	88.055652 
1096.337851  	88.098167 
1097.774729  	88.171750 
1099.211607  	88.309107 
1100.648485  	88.410270 
1102.085362  	88.454862 
1103.522240  	88.495559 
1104.959118  	88.557465 
1106.395996  	88.655535 
1107.832874  	88.726181 
1109.269752  	88.779993 
1110.706630  	88.870181 
1112.143508  	88.927039 
1113.580386  	88.977044 
1115.017264  	89.069270 
1116.454142  	89.141358 
1117.891020  	89.222242 
1119.327897  	89.328035 
1120.764775  	89.416388 
1122.201653  	89.480175 
1123.638531  	89.476338 
1125.075409  	89.481563 
1126.512287  	89.600095 
1127.949165  	89.721410 
1129.386043  	89.793971 
1130.822921  	89.864151 
1132.259799  	89.904441 
1133.696677  	89.952562 
1135.133555  	90.033531 
1136.570432  	90.079496 
1138.007310  	90.106558 
1139.444188  	90.167138 
1140.881066  	90.239980 
1142.317944  	90.290127 
1143.754822  	90.323141 
1145.191700  	90.361228 
1146.628578  	90.404129 
1148.065456  	90.454854 
1149.502334  	90.501105 
1150.939212  	90.518381 
1152.376090  	90.553009 
1153.812967  	90.623934 
1155.249845  	90.671561 
1156.686723  	90.704679 
1158.123601  	90.758904 
1159.560479  	90.801686 
1160.997357  	90.818184 
1162.434235  	90.842083 
1163.871113  	90.878938 
1165.307991  	90.901177 
1166.744869  	90.926577 
1168.181747  	90.973535 
1169.618625  	90.992849 
1171.055502  	90.985664 
1172.492380  	91.002263 
1173.929258  	91.026208 
1175.366136  	91.035476 
1176.803014  	91.033990 
1178.239892  	91.026549 
1179.676770  	91.030672 
1181.113648  	91.042345 
1182.550526  	91.056824 
1183.987404  	91.069457 
1185.424282  	91.062578 
1186.861160  	91.060451 
1188.298038  	91.066425 
1189.734915  	91.048307 
1191.171793  	91.018685 
1192.608671  	90.993257 
1194.045549  	91.001809 
1195.482427  	91.059713 
1196.919305  	91.102461 
1198.356183  	91.107870 
1199.793061  	91.097363 
1201.229939  	91.079436 
1202.666817  	91.086596 
1204.103695  	91.091513 
1205.540573  	91.075832 
1206.977450  	91.098509 
1208.414328  	91.125833 
1209.851206  	91.124579 
1211.288084  	91.150710 
1212.724962  	91.176080 
1214.161840  	91.164019 
1215.598718  	91.164908 
1217.035596  	91.183974 
1218.472474  	91.177831 
1219.909352  	91.154806 
1221.346230  	91.167100 
1222.783108  	91.196346 
1224.219985  	91.173087 
1225.656863  	91.130565 
1227.093741  	91.137637 
1228.530619  	91.180420 
1229.967497  	91.223311 
1231.404375  	91.243983 
1232.841253  	91.247898 
1234.278131  	91.255284 
1235.715009  	91.254245 
1237.151887  	91.248502 
1238.588765  	91.273154 
1240.025643  	91.318814 
1241.462520  	91.331519 
1242.899398  	91.320102 
1244.336276  	91.346450 
1245.773154  	91.376527 
1247.210032  	91.364776 
1248.646910  	91.365374 
1250.083788  	91.381741 
1251.520666  	91.392758 
1252.957544  	91.416629 
1254.394422  	91.418870 
1255.831300  	91.413606 
1257.268178  	91.434409 
1258.705055  	91.426511 
1260.141933  	91.410162 
1261.578811  	91.430970 
1263.015689  	91.457297 
1264.452567  	91.484633 
1265.889445  	91.486278 
1267.326323  	91.463922 
1268.763201  	91.480372 
1270.200079  	91.508830 
1271.636957  	91.538294 
1273.073835  	91.581063 
1274.510713  	91.582610 
1275.947590  	91.587595 
1277.384468  	91.634138 
1278.821346  	91.649010 
1280.258224  	91.655436 
1281.695102  	91.685630 
1283.131980  	91.697920 
1284.568858  	91.709910 
1286.005736  	91.716817 
1287.442614  	91.706915 
1288.879492  	91.733418 
1290.316370  	91.763030 
1291.753248  	91.756075 
1293.190125  	91.790036 
1294.627003  	91.856944 
1296.063881  	91.869596 
1297.500759  	91.860847 
1298.937637  	91.871860 
1300.374515  	91.871367 
1301.811393  	91.880431 
1303.248271  	91.899348 
1304.685149  	91.915054 
1306.122027  	91.921369 
1307.558905  	91.932913 
1308.995783  	91.932117 
1310.432660  	91.932078 
1311.869538  	91.927656 
1313.306416  	91.915244 
1314.743294  	91.918309 
1316.180172  	91.914031 
1317.617050  	91.920059 
1319.053928  	91.940122 
1320.490806  	91.930648 
1321.927684  	91.919165 
1323.364562  	91.915461 
1324.801440  	91.906734 
1326.238318  	91.939684 
1327.675195  	91.950130 
1329.112073  	91.923705 
1330.548951  	91.918150 
1331.985829  	91.921021 
1333.422707  	91.918432 
1334.859585  	91.910294 
1336.296463  	91.882493 
1337.733341  	91.859357 
1339.170219  	91.825898 
1340.607097  	91.808385 
1342.043975  	91.847108 
1343.480853  	91.858511 
1344.917730  	91.807002 
1346.354608  	91.810420 
1347.791486  	91.816844 
1349.228364  	91.774383 
1350.665242  	91.752601 
1352.102120  	91.776254 
1353.538998  	91.781255 
1354.975876  	91.746753 
1356.412754  	91.720502 
1357.849632  	91.724297 
1359.286510  	91.723244 
1360.723388  	91.699398 
1362.160265  	91.664879 
1363.597143  	91.650334 
1365.034021  	91.682113 
1366.470899  	91.695513 
1367.907777  	91.645717 
1369.344655  	91.589574 
1370.781533  	91.561746 
1372.218411  	91.572107 
1373.655289  	91.571483 
1375.092167  	91.535369 
1376.529045  	91.518594 
1377.965923  	91.500299 
1379.402800  	91.525289 
1380.839678  	91.588206 
1382.276556  	91.581353 
1383.713434  	91.546078 
1385.150312  	91.544473 
1386.587190  	91.459739 
1388.024068  	91.356708 
1389.460946  	91.371548 
1390.897824  	91.390268 
1392.334702  	91.377105 
1393.771580  	91.341575 
1395.208458  	91.273273 
1396.645335  	91.239434 
1398.082213  	91.234246 
1399.519091  	91.208578 
1400.955969  	91.180886 
1402.392847  	91.180941 
1403.829725  	91.155321 
1405.266603  	91.105947 
1406.703481  	91.040488 
1408.140359  	90.978198 
1409.577237  	90.946403 
1411.014115  	90.940785 
1412.450993  	90.908979 
1413.887871  	90.928117 
1415.324748  	90.985094 
1416.761626  	90.984594 
1418.198504  	90.925234 
1419.635382  	90.775708 
1421.072260  	90.821274 
1422.509138  	90.992419 
1423.946016  	91.002232 
1425.382894  	90.985936 
1426.819772  	91.127328 
1428.256650  	91.089318 
1429.693528  	90.943403 
1431.130406  	90.998484 
1432.567283  	91.048371 
1434.004161  	91.169960 
1435.441039  	91.398473 
1436.877917  	91.427090 
1438.314795  	91.319946 
1439.751673  	91.289313 
1441.188551  	91.372826 
1442.625429  	91.623855 
1444.062307  	91.785416 
1445.499185  	91.771924 
1446.936063  	91.710378 
1448.372941  	91.667164 
1449.809818  	91.793155 
1451.246696  	91.958487 
1452.683574  	92.077486 
1454.120452  	92.223949 
1455.557330  	92.274548 
1456.994208  	92.009921 
1458.431086  	92.155858 
1459.867964  	92.517384 
1461.304842  	92.714495 
1462.741720  	92.845838 
1464.178598  	92.941440 
1465.615476  	92.930545 
1467.052353  	92.921424 
1468.489231  	92.983954 
1469.926109  	93.082417 
1471.362987  	93.143689 
1472.799865  	93.180681 
1474.236743  	93.427120 
1475.673621  	93.645550 
1477.110499  	93.666818 
1478.547377  	93.656845 
1479.984255  	93.754372 
1481.421133  	93.820162 
1482.858011  	93.873147 
1484.294888  	94.009985 
1485.731766  	94.085335 
1487.168644  	94.108268 
1488.605522  	94.083904 
1490.042400  	94.061130 
1491.479278  	94.170783 
1492.916156  	94.305064 
1494.353034  	94.405172 
1495.789912  	94.490586 
1497.226790  	94.493985 
1498.663668  	94.409157 
1500.100546  	94.363607 
1501.537423  	94.412444 
1502.974301  	94.502227 
1504.411179  	94.588642 
1505.848057  	94.738224 
1507.284935  	94.687031 
1508.721813  	94.362238 
1510.158691  	94.284867 
1511.595569  	94.373586 
1513.032447  	94.484093 
1514.469325  	94.488622 
1515.906203  	94.409659 
1517.343081  	94.272429 
1518.779958  	94.298673 
1520.216836  	94.327695 
1521.653714  	94.246633 
1523.090592  	94.332376 
1524.527470  	94.403419 
1525.964348  	94.258593 
1527.401226  	94.158773 
1528.838104  	94.236147 
1530.274982  	94.191637 
1531.711860  	94.120321 
1533.148738  	94.134114 
1534.585616  	94.018151 
1536.022493  	93.970711 
1537.459371  	94.078908 
1538.896249  	94.243357 
1540.333127  	94.156549 
1541.770005  	93.773279 
1543.206883  	93.691101 
1544.643761  	93.824565 
1546.080639  	93.830962 
1547.517517  	93.771597 
1548.954395  	93.753760 
1550.391273  	93.601818 
1551.828151  	93.431110 
1553.265028  	93.320464 
1554.701906  	93.289711 
1556.138784  	93.493763 
1557.575662  	93.642049 
1559.012540  	93.164428 
1560.449418  	93.000681 
1561.886296  	93.142802 
1563.323174  	93.115468 
1564.760052  	93.076820 
1566.196930  	93.087765 
1567.633808  	93.044512 
1569.070686  	92.875898 
1570.507563  	92.755164 
1571.944441  	92.758268 
1573.381319  	92.718294 
1574.818197  	92.719079 
1576.255075  	92.770984 
1577.691953  	92.656385 
1579.128831  	92.548515 
1580.565709  	92.524113 
1582.002587  	92.594466 
1583.439465  	92.645859 
1584.876343  	92.563358 
1586.313221  	92.518458 
1587.750098  	92.540072 
1589.186976  	92.411374 
1590.623854  	92.315684 
1592.060732  	92.434929 
1593.497610  	92.531545 
1594.934488  	92.510777 
1596.371366  	92.447685 
1597.808244  	92.379150 
1599.245122  	92.358843 
1600.682000  	92.388004 
1602.118878  	92.456176 
1603.555756  	92.475693 
1604.992633  	92.384928 
1606.429511  	92.336736 
1607.866389  	92.344197 
1609.303267  	92.314603 
1610.740145  	92.289187 
1612.177023  	92.270224 
1613.613901  	92.345595 
1615.050779  	92.461962 
1616.487657  	92.474132 
1617.924535  	92.358752 
1619.361413  	92.357255 
1620.798291  	92.412966 
1622.235168  	92.497075 
1623.672046  	92.563004 
1625.108924  	92.550689 
1626.545802  	92.557806 
1627.982680  	92.513190 
1629.419558  	92.454093 
1630.856436  	92.558265 
1632.293314  	92.807202 
1633.730192  	93.008260 
1635.167070  	93.054071 
1636.603948  	92.737933 
1638.040826  	92.760917 
1639.477703  	92.958026 
1640.914581  	93.051015 
1642.351459  	93.112195 
1643.788337  	93.169396 
1645.225215  	93.127666 
1646.662093  	93.080139 
1648.098971  	93.118485 
1649.535849  	93.207233 
1650.972727  	93.425949 
1652.409605  	93.860680 
1653.846483  	93.940059 
1655.283361  	93.531269 
1656.720239  	93.394775 
1658.157116  	93.450042 
1659.593994  	93.582370 
1661.030872  	93.697624 
1662.467750  	93.770941 
1663.904628  	93.781175 
1665.341506  	93.735028 
1666.778384  	93.597411 
1668.215262  	93.520448 
1669.652140  	93.890834 
1671.089018  	94.053315 
1672.525896  	93.818919 
1673.962774  	93.881606 
1675.399651  	93.929384 
1676.836529  	93.755396 
1678.273407  	93.857908 
1679.710285  	93.913063 
1681.147163  	93.894317 
1682.584041  	93.943231 
1684.020919  	93.886281 
1685.457797  	93.933701 
1686.894675  	94.016734 
1688.331553  	93.877511 
1689.768431  	93.786986 
1691.205309  	93.897603 
1692.642186  	93.897184 
1694.079064  	93.886622 
1695.515942  	93.985988 
1696.952820  	93.829123 
1698.389698  	93.769557 
1699.826576  	93.766354 
1701.263454  	93.688214 
1702.700332  	93.913306 
1704.137210  	94.018835 
1705.574088  	93.832256 
1707.010966  	93.732787 
1708.447844  	93.772279 
1709.884721  	93.627063 
1711.321599  	93.607410 
1712.758477  	93.811330 
1714.195355  	93.806495 
1715.632233  	93.625073 
1717.069111  	93.666933 
1718.505989  	93.754977 
1719.942867  	93.764742 
1721.379745  	93.790242 
1722.816623  	93.813423 
1724.253501  	93.844220 
1725.690379  	93.830322 
1727.127256  	93.736159 
1728.564134  	93.740975 
1730.001012  	93.776549 
1731.437890  	93.765109 
1732.874768  	93.797637 
1734.311646  	93.873980 
1735.748524  	93.908439 
1737.185402  	93.963631 
1738.622280  	94.006431 
1740.059158  	94.014009 
1741.496036  	94.092145 
1742.932914  	94.088309 
1744.369791  	94.010370 
1745.806669  	94.110438 
1747.243547  	94.222148 
1748.680425  	94.179475 
1750.117303  	94.254912 
1751.554181  	94.352371 
1752.991059  	94.282478 
1754.427937  	94.290999 
1755.864815  	94.405880 
1757.301693  	94.522367 
1758.738571  	94.611633 
1760.175449  	94.653769 
1761.612326  	94.667687 
1763.049204  	94.690057 
1764.486082  	94.731393 
1765.922960  	94.829824 
1767.359838  	94.892525 
1768.796716  	94.875095 
1770.233594  	94.930617 
1771.670472  	95.007013 
1773.107350  	94.990534 
1774.544228  	94.991742 
1775.981106  	94.996417 
1777.417984  	95.026457 
1778.854861  	95.121422 
1780.291739  	95.149467 
1781.728617  	95.096505 
1783.165495  	95.105082 
1784.602373  	95.110645 
1786.039251  	95.074205 
1787.476129  	95.114838 
1788.913007  	95.241746 
1790.349885  	95.325027 
1791.786763  	95.350121 
1793.223641  	95.257829 
1794.660519  	95.184488 
1796.097396  	95.215678 
1797.534274  	95.313394 
1798.971152  	95.449026 
1800.408030  	95.481248 
1801.844908  	95.318667 
1803.281786  	95.233487 
1804.718664  	95.257524 
1806.155542  	95.267740 
1807.592420  	95.311230 
1809.029298  	95.389953 
1810.466176  	95.436829 
1811.903054  	95.402656 
1813.339931  	95.346364 
1814.776809  	95.380945 
1816.213687  	95.456490 
1817.650565  	95.476130 
1819.087443  	95.501298 
1820.524321  	95.538261 
1821.961199  	95.522387 
1823.398077  	95.582740 
1824.834955  	95.641599 
1826.271833  	95.590273 
1827.708711  	95.624399 
1829.145589  	95.716227 
1830.582466  	95.704866 
1832.019344  	95.678451 
1833.456222  	95.714244 
1834.893100  	95.736793 
1836.329978  	95.726182 
1837.766856  	95.711065 
1839.203734  	95.706086 
1840.640612  	95.702759 
1842.077490  	95.769895 
1843.514368  	95.877892 
1844.951246  	95.850877 
1846.388124  	95.794914 
1847.825001  	95.840448 
1849.261879  	95.878045 
1850.698757  	95.876875 
1852.135635  	95.879722 
1853.572513  	95.912330 
1855.009391  	95.941986 
1856.446269  	95.893495 
1857.883147  	95.861765 
1859.320025  	95.940625 
1860.756903  	95.959701 
1862.193781  	95.896069 
1863.630659  	95.850465 
1865.067536  	95.830842 
1866.504414  	95.886944 
1867.941292  	96.015429 
1869.378170  	96.055533 
1870.815048  	95.933127 
1872.251926  	95.843089 
1873.688804  	95.885612 
1875.125682  	95.927762 
1876.562560  	95.904893 
1877.999438  	95.923977 
1879.436316  	95.886320 
1880.873194  	95.743695 
1882.310072  	95.696910 
1883.746949  	95.789239 
1885.183827  	95.887443 
1886.620705  	95.927485 
1888.057583  	95.932745 
1889.494461  	95.898667 
1890.931339  	95.845837 
1892.368217  	95.925544 
1893.805095  	95.980249 
1895.241973  	95.959872 
1896.678851  	95.907413 
1898.115729  	95.861503 
1899.552607  	95.900115 
1900.989484  	95.923994 
1902.426362  	95.904883 
1903.863240  	95.904945 
1905.300118  	95.941648 
1906.736996  	95.920571 
1908.173874  	95.919364 
1909.610752  	95.937455 
1911.047630  	95.837199 
1912.484508  	95.801335 
1913.921386  	95.955366 
1915.358264  	96.002784 
1916.795142  	96.032427 
1918.232019  	96.037400 
1919.668897  	95.917392 
1921.105775  	95.888629 
1922.542653  	96.009239 
1923.979531  	96.096753 
1925.416409  	96.102319 
1926.853287  	95.930963 
1928.290165  	95.869742 
1929.727043  	96.042172 
1931.163921  	96.246625 
1932.600799  	96.283498 
1934.037677  	96.226886 
1935.474554  	96.239802 
1936.911432  	96.176445 
1938.348310  	96.013725 
1939.785188  	96.007892 
1941.222066  	96.133822 
1942.658944  	96.291054 
1944.095822  	96.449355 
1945.532700  	96.483421 
1946.969578  	96.538314 
1948.406456  	96.578999 
1949.843334  	96.501863 
1951.280212  	96.446092 
1952.717089  	96.305425 
1954.153967  	96.055379 
1955.590845  	95.984841 
1957.027723  	96.032650 
1958.464601  	96.048691 
1959.901479  	96.151936 
1961.338357  	96.336183 
1962.775235  	96.622031 
1964.212113  	96.901306 
1965.648991  	96.976425 
1967.085869  	96.774584 
1968.522747  	96.486550 
1969.959624  	96.469487 
1971.396502  	96.422243 
1972.833380  	96.274547 
1974.270258  	96.306926 
1975.707136  	96.375063 
1977.144014  	96.477799 
1978.580892  	96.718723 
1980.017770  	96.472249 
1981.454648  	95.933202 
1982.891526  	95.766669 
1984.328404  	95.864632 
1985.765282  	95.903229 
1987.202159  	95.931402 
1988.639037  	95.949890 
1990.075915  	95.950757 
1991.512793  	95.932611 
1992.949671  	95.723217 
1994.386549  	95.516259 
1995.823427  	95.446329 
1997.260305  	95.442270 
1998.697183  	95.751446 
2000.134061  	96.200155 
2001.570939  	96.166175 
2003.007817  	95.735675 
2004.444694  	95.341429 
2005.881572  	95.218422 
2007.318450  	95.480156 
2008.755328  	95.449311 
2010.192206  	94.959719 
2011.629084  	94.833537 
2013.065962  	95.117922 
2014.502840  	95.369088 
2015.939718  	95.283094 
2017.376596  	94.919207 
2018.813474  	94.921547 
2020.250352  	94.979550 
2021.687229  	94.533666 
2023.124107  	94.345443 
2024.560985  	94.503366 
2025.997863  	94.559058 
2027.434741  	94.841962 
2028.871619  	94.933690 
2030.308497  	94.516679 
2031.745375  	94.510174 
2033.182253  	94.739622 
2034.619131  	94.706031 
2036.056009  	94.688028 
2037.492887  	94.343963 
2038.929764  	94.017408 
2040.366642  	94.420087 
2041.803520  	94.803479 
2043.240398  	94.569713 
2044.677276  	94.256464 
2046.114154  	94.142960 
2047.551032  	94.205566 
2048.987910  	94.447615 
2050.424788  	94.709393 
2051.861666  	94.804340 
2053.298544  	94.650301 
2054.735422  	94.472352 
2056.172299  	94.339419 
2057.609177  	94.227351 
2059.046055  	94.415735 
2060.482933  	94.676191 
2061.919811  	94.539433 
2063.356689  	94.398148 
2064.793567  	94.540533 
2066.230445  	94.651514 
2067.667323  	94.617328 
2069.104201  	94.537510 
2070.541079  	94.529970 
2071.977957  	94.615305 
2073.414834  	94.661132 
2074.851712  	94.597686 
2076.288590  	94.445420 
2077.725468  	94.336604 
2079.162346  	94.369765 
2080.599224  	94.469352 
2082.036102  	94.647815 
2083.472980  	94.911536 
2084.909858  	95.026370 
2086.346736  	94.905396 
2087.783614  	94.739210 
2089.220492  	94.716849 
2090.657369  	94.771218 
2092.094247  	94.776131 
2093.531125  	94.711487 
2094.968003  	94.611019 
2096.404881  	94.685446 
2097.841759  	94.865030 
2099.278637  	94.853875 
2100.715515  	94.939116 
2102.152393  	95.136615 
2103.589271  	95.014103 
2105.026149  	94.894914 
2106.463027  	94.978213 
2107.899904  	95.068128 
2109.336782  	95.214731 
2110.773660  	95.139842 
2112.210538  	94.994052 
2113.647416  	95.148219 
2115.084294  	95.054881 
2116.521172  	94.897057 
2117.958050  	95.190663 
2119.394928  	95.286003 
2120.831806  	95.201012 
2122.268684  	95.354783 
2123.705562  	95.382880 
2125.142440  	95.402927 
2126.579317  	95.391805 
2128.016195  	95.063913 
2129.453073  	95.014940 
2130.889951  	95.383393 
2132.326829  	95.675218 
2133.763707  	95.813545 
2135.200585  	95.758032 
2136.637463  	95.853398 
2138.074341  	96.186298 
2139.511219  	96.156075 
2140.948097  	95.988706 
2142.384975  	96.010469 
2143.821852  	95.895148 
2145.258730  	95.819950 
2146.695608  	95.969090 
2148.132486  	96.015904 
2149.569364  	95.920391 
2151.006242  	95.975178 
2152.443120  	96.095374 
2153.879998  	96.017454 
2155.316876  	96.147477 
2156.753754  	96.292162 
2158.190632  	95.665590 
2159.627510  	95.323672 
2161.064387  	95.694798 
2162.501265  	95.626685 
2163.938143  	95.686410 
2165.375021  	95.796784 
2166.811899  	95.304249 
2168.248777  	95.043877 
2169.685655  	95.072869 
2171.122533  	94.781205 
2172.559411  	94.668568 
2173.996289  	95.003906 
2175.433167  	95.536798 
2176.870045  	95.793142 
2178.306922  	95.419565 
2179.743800  	94.893021 
2181.180678  	94.794282 
2182.617556  	95.054829 
2184.054434  	95.177879 
2185.491312  	94.864465 
2186.928190  	94.797652 
2188.365068  	95.056881 
2189.801946  	94.916796 
2191.238824  	94.764822 
2192.675702  	94.797361 
2194.112580  	94.564125 
2195.549457  	94.424609 
2196.986335  	94.507666 
2198.423213  	94.656242 
2199.860091  	94.852944 
2201.296969  	94.513134 
2202.733847  	93.915129 
2204.170725  	93.993464 
2205.607603  	94.250343 
2207.044481  	94.249808 
2208.481359  	94.286713 
2209.918237  	94.167412 
2211.355115  	93.951197 
2212.791992  	94.016678 
2214.228870  	94.164030 
2215.665748  	94.281870 
2217.102626  	94.435758 
2218.539504  	94.313131 
2219.976382  	94.047652 
2221.413260  	94.130825 
2222.850138  	94.302816 
2224.287016  	94.323637 
2225.723894  	94.403087 
2227.160772  	94.206896 
2228.597650  	93.777877 
2230.034527  	93.785357 
2231.471405  	93.958188 
2232.908283  	93.852228 
2234.345161  	93.714922 
2235.782039  	93.573246 
2237.218917  	93.594712 
2238.655795  	93.964042 
2240.092673  	94.135254 
2241.529551  	93.891485 
2242.966429  	93.748789 
2244.403307  	93.923859 
2245.840185  	94.028313 
2247.277062  	93.812238 
2248.713940  	93.695562 
2250.150818  	93.842345 
2251.587696  	93.895759 
2253.024574  	93.919119 
2254.461452  	93.921222 
2255.898330  	93.863733 
2257.335208  	93.900348 
2258.772086  	93.952787 
2260.208964  	93.873690 
2261.645842  	93.876461 
2263.082720  	93.921977 
2264.519597  	93.891094 
2265.956475  	93.923485 
2267.393353  	93.976819 
2268.830231  	93.919451 
2270.267109  	93.902788 
2271.703987  	93.959866 
2273.140865  	93.938085 
2274.577743  	93.875928 
2276.014621  	93.868228 
2277.451499  	93.941825 
2278.888377  	93.994579 
2280.325255  	93.970707 
2281.762132  	93.908292 
2283.199010  	93.851706 
2284.635888  	93.874203 
2286.072766  	93.930609 
2287.509644  	93.890496 
2288.946522  	93.850385 
2290.383400  	93.882574 
2291.820278  	93.866361 
2293.257156  	93.792921 
2294.694034  	93.764617 
2296.130912  	93.757883 
2297.567790  	93.801653 
2299.004667  	93.694588 
2300.441545  	93.733658 
2301.878423  	93.620879 
2303.315301  	93.615417 
2304.752179  	93.614842 
2306.189057  	93.596623 
2307.625935  	93.563988 
2309.062813  	93.523095 
2310.499691  	93.517285 
2311.936569  	93.525418 
2313.373447  	93.503587 
2314.810325  	93.455374 
2316.247202  	93.458366 
2317.684080  	93.468311 
2319.120958  	93.365284 
2320.557836  	93.279390 
2321.994714  	93.255459 
2323.431592  	93.159453 
2324.868470  	93.106137 
2326.305348  	93.132762 
2327.742226  	93.114486 
2329.179104  	93.045744 
2330.615982  	92.990689 
2332.052860  	93.036350 
2333.489737  	93.145385 
2334.926615  	93.134475 
2336.363493  	93.081200 
2337.800371  	93.173380 
2339.237249  	93.255819 
2340.674127  	93.247148 
2342.111005  	93.279910 
2343.547883  	93.283069 
2344.984761  	93.150758 
2346.421639  	93.023955 
2347.858517  	93.050658 
2349.295395  	93.100078 
2350.732273  	93.076912 
2352.169150  	93.093245 
2353.606028  	93.198262 
2355.042906  	93.126871 
2356.479784  	93.045298 
2357.916662  	93.250820 
2359.353540  	93.358636 
2360.790418  	93.270264 
2362.227296  	93.331497 
2363.664174  	93.379921 
2365.101052  	93.229990 
2366.537930  	93.093645 
2367.974808  	93.115115 
2369.411685  	93.175987 
2370.848563  	93.215714 
2372.285441  	93.308839 
2373.722319  	93.365724 
2375.159197  	93.328941 
2376.596075  	93.347238 
2378.032953  	93.445042 
2379.469831  	93.523434 
2380.906709  	93.618129 
2382.343587  	93.710650 
2383.780465  	93.727626 
2385.217343  	93.782430 
2386.654220  	94.015720 
2388.091098  	94.134446 
2389.527976  	94.068614 
2390.964854  	94.014980 
2392.401732  	94.023535 
2393.838610  	94.077479 
2395.275488  	94.114141 
2396.712366  	94.055280 
2398.149244  	94.035345 
2399.586122  	94.094392 
2401.023000  	94.081272 
2402.459878  	94.037377 
2403.896755  	94.045137 
2405.333633  	94.081333 
2406.770511  	94.119103 
2408.207389  	94.095386 
2409.644267  	94.100313 
2411.081145  	94.195114 
2412.518023  	94.174327 
2413.954901  	94.076273 
2415.391779  	94.086849 
2416.828657  	94.094471 
2418.265535  	94.061492 
2419.702413  	94.084740 
2421.139290  	94.108416 
2422.576168  	94.081874 
2424.013046  	94.078028 
2425.449924  	94.186193 
2426.886802  	94.274070 
2428.323680  	94.159517 
2429.760558  	94.071259 
2431.197436  	94.180632 
2432.634314  	94.225773 
2434.071192  	94.136244 
2435.508070  	94.106432 
2436.944948  	94.153737 
2438.381825  	94.161337 
2439.818703  	94.094320 
2441.255581  	94.065463 
2442.692459  	94.105832 
2444.129337  	94.109944 
2445.566215  	94.126961 
2447.003093  	94.182070 
2448.439971  	94.152663 
2449.876849  	94.096742 
2451.313727  	94.098037 
2452.750605  	94.069915 
2454.187483  	94.012709 
2455.624360  	93.997633 
2457.061238  	94.005982 
2458.498116  	93.983721 
2459.934994  	93.924688 
2461.371872  	93.927793 
2462.808750  	94.012110 
2464.245628  	94.026438 
2465.682506  	93.988377 
2467.119384  	94.002710 
2468.556262  	93.921024 
2469.993140  	93.753125 
2471.430018  	93.775413 
2472.866895  	93.913651 
2474.303773  	93.929679 
2475.740651  	93.891649 
2477.177529  	93.861510 
2478.614407  	93.800067 
2480.051285  	93.764754 
2481.488163  	93.809069 
2482.925041  	93.888268 
2484.361919  	93.890276 
2485.798797  	93.842571 
2487.235675  	93.872690 
2488.672553  	93.884034 
2490.109430  	93.843635 
2491.546308  	93.859403 
2492.983186  	93.833702 
2494.420064  	93.810403 
2495.856942  	93.890743 
2497.293820  	93.876849 
2498.730698  	93.788557 
2500.167576  	93.751274 
2501.604454  	93.705576 
2503.041332  	93.769841 
2504.478210  	93.892262 
2505.915088  	93.827660 
2507.351965  	93.726053 
2508.788843  	93.748335 
2510.225721  	93.819670 
2511.662599  	93.854644 
2513.099477  	93.749536 
2514.536355  	93.635063 
2515.973233  	93.680185 
2517.410111  	93.727033 
2518.846989  	93.710810 
2520.283867  	93.711558 
2521.720745  	93.711301 
2523.157623  	93.746375 
2524.594500  	93.806210 
2526.031378  	93.782003 
2527.468256  	93.696705 
2528.905134  	93.645727 
2530.342012  	93.617204 
2531.778890  	93.583439 
2533.215768  	93.613515 
2534.652646  	93.657155 
2536.089524  	93.565529 
2537.526402  	93.465607 
2538.963280  	93.494894 
2540.400158  	93.526293 
2541.837035  	93.521939 
2543.273913  	93.517854 
2544.710791  	93.486555 
2546.147669  	93.459041 
2547.584547  	93.445354 
2549.021425  	93.428096 
2550.458303  	93.404854 
2551.895181  	93.410660 
2553.332059  	93.529915 
2554.768937  	93.616906 
2556.205815  	93.494291 
2557.642693  	93.378363 
2559.079570  	93.416098 
2560.516448  	93.424770 
2561.953326  	93.356809 
2563.390204  	93.311767 
2564.827082  	93.270913 
2566.263960  	93.224506 
2567.700838  	93.256814 
2569.137716  	93.317014 
2570.574594  	93.301683 
2572.011472  	93.296336 
2573.448350  	93.289676 
2574.885228  	93.201824 
2576.322105  	93.172519 
2577.758983  	93.199249 
2579.195861  	93.165608 
2580.632739  	93.147885 
2582.069617  	93.141517 
2583.506495  	93.137464 
2584.943373  	93.165370 
2586.380251  	93.110862 
2587.817129  	93.034897 
2589.254007  	93.024428 
2590.690885  	92.982486 
2592.127763  	92.976175 
2593.564641  	93.023349 
2595.001518  	93.020203 
2596.438396  	93.017500 
2597.875274  	93.018214 
2599.312152  	93.047141 
2600.749030  	93.115110 
2602.185908  	93.044597 
2603.622786  	92.933052 
2605.059664  	92.964298 
2606.496542  	92.955209 
2607.933420  	92.846221 
2609.370298  	92.773488 
2610.807176  	92.742803 
2612.244053  	92.764320 
2613.680931  	92.836235 
2615.117809  	92.890363 
2616.554687  	92.885073 
2617.991565  	92.828118 
2619.428443  	92.797137 
2620.865321  	92.827005 
2622.302199  	92.846547 
2623.739077  	92.804420 
2625.175955  	92.735604 
2626.612833  	92.724764 
2628.049711  	92.752483 
2629.486588  	92.742466 
2630.923466  	92.769746 
2632.360344  	92.855101 
2633.797222  	92.857628 
2635.234100  	92.784218 
2636.670978  	92.769403 
2638.107856  	92.803983 
2639.544734  	92.804302 
2640.981612  	92.804415 
2642.418490  	92.833389 
2643.855368  	92.815363 
2645.292246  	92.785485 
2646.729123  	92.830537 
2648.166001  	92.889284 
2649.602879  	92.923527 
2651.039757  	92.941699 
2652.476635  	92.923969 
2653.913513  	92.914677 
2655.350391  	92.917979 
2656.787269  	92.894829 
2658.224147  	92.879979 
2659.661025  	92.876271 
2661.097903  	92.879224 
2662.534781  	92.911832 
2663.971658  	92.942553 
2665.408536  	92.966147 
2666.845414  	92.984446 
2668.282292  	92.982283 
2669.719170  	93.009952 
2671.156048  	93.051850 
2672.592926  	93.024671 
2674.029804  	92.964289 
2675.466682  	92.967360 
2676.903560  	93.037827 
2678.340438  	93.071727 
2679.777316  	93.034431 
2681.214193  	93.029650 
2682.651071  	93.065933 
2684.087949  	93.071750 
2685.524827  	93.066679 
2686.961705  	93.069204 
2688.398583  	93.071389 
2689.835461  	93.066903 
2691.272339  	93.044811 
2692.709217  	93.045752 
2694.146095  	93.074199 
2695.582973  	93.085480 
2697.019851  	93.088488 
2698.456728  	93.078470 
2699.893606  	93.064551 
2701.330484  	93.091059 
2702.767362  	93.102224 
2704.204240  	93.045532 
2705.641118  	92.996630 
2707.077996  	93.012235 
2708.514874  	93.045366 
2709.951752  	93.043371 
2711.388630  	93.024322 
2712.825508  	93.017287 
2714.262386  	93.017994 
2715.699263  	93.018518 
2717.136141  	93.010550 
2718.573019  	93.014799 
2720.009897  	93.032525 
2721.446775  	93.003250 
2722.883653  	92.955403 
2724.320531  	92.971536 
2725.757409  	93.028679 
2727.194287  	93.053280 
2728.631165  	92.998257 
2730.068043  	92.928653 
2731.504921  	92.936306 
2732.941798  	92.942906 
2734.378676  	92.903872 
2735.815554  	92.891792 
2737.252432  	92.894765 
2738.689310  	92.907520 
2740.126188  	92.917582 
2741.563066  	92.880742 
2742.999944  	92.885533 
2744.436822  	92.931370 
2745.873700  	92.907692 
2747.310578  	92.892273 
2748.747456  	92.944904 
2750.184333  	92.980324 
2751.621211  	92.965785 
2753.058089  	92.918055 
2754.494967  	92.887609 
2755.931845  	92.903986 
2757.368723  	92.929187 
2758.805601  	92.951440 
2760.242479  	92.937877 
2761.679357  	92.875601 
2763.116235  	92.837255 
2764.553113  	92.830730 
2765.989991  	92.837922 
2767.426868  	92.851853 
2768.863746  	92.830789 
2770.300624  	92.822879 
2771.737502  	92.842223 
2773.174380  	92.810779 
2774.611258  	92.788858 
2776.048136  	92.807745 
2777.485014  	92.795845 
2778.921892  	92.810902 
2780.358770  	92.855640 
2781.795648  	92.842272 
2783.232526  	92.837352 
2784.669403  	92.863770 
2786.106281  	92.842408 
2787.543159  	92.819061 
2788.980037  	92.814625 
2790.416915  	92.776717 
2791.853793  	92.764133 
2793.290671  	92.799383 
2794.727549  	92.805392 
2796.164427  	92.785191 
2797.601305  	92.758498 
2799.038183  	92.734301 
2800.475061  	92.762116 
2801.911938  	92.780170 
2803.348816  	92.737271 
2804.785694  	92.767038 
2806.222572  	92.868490 
2807.659450  	92.870186 
2809.096328  	92.789143 
2810.533206  	92.748243 
2811.970084  	92.757262 
2813.406962  	92.774949 
2814.843840  	92.768434 
2816.280718  	92.747256 
2817.717596  	92.746217 
2819.154474  	92.755187 
2820.591351  	92.756580 
2822.028229  	92.750988 
2823.465107  	92.734782 
2824.901985  	92.720793 
2826.338863  	92.733706 
2827.775741  	92.773416 
2829.212619  	92.791612 
2830.649497  	92.768141 
2832.086375  	92.777719 
2833.523253  	92.825071 
2834.960131  	92.807713 
2836.397009  	92.745420 
2837.833886  	92.731014 
2839.270764  	92.740778 
2840.707642  	92.744088 
2842.144520  	92.781338 
2843.581398  	92.833453 
2845.018276  	92.823624 
2846.455154  	92.792024 
2847.892032  	92.842151 
2849.328910  	92.903575 
2850.765788  	92.878435 
2852.202666  	92.843771 
2853.639544  	92.822583 
2855.076421  	92.790286 
2856.513299  	92.813256 
2857.950177  	92.839507 
2859.387055  	92.815353 
2860.823933  	92.823084 
2862.260811  	92.809310 
2863.697689  	92.744495 
2865.134567  	92.757304 
2866.571445  	92.809696 
2868.008323  	92.808431 
2869.445201  	92.792471 
2870.882079  	92.788474 
2872.318956  	92.813507 
2873.755834  	92.830822 
2875.192712  	92.786072 
2876.629590  	92.751307 
2878.066468  	92.755618 
2879.503346  	92.758385 
2880.940224  	92.749651 
2882.377102  	92.716420 
2883.813980  	92.736711 
2885.250858  	92.823129 
2886.687736  	92.825727 
2888.124614  	92.771313 
2889.561491  	92.743670 
2890.998369  	92.691131 
2892.435247  	92.671341 
2893.872125  	92.741435 
2895.309003  	92.811302 
2896.745881  	92.811357 
2898.182759  	92.743714 
2899.619637  	92.700592 
2901.056515  	92.737522 
2902.493393  	92.764229 
2903.930271  	92.738508 
2905.367149  	92.700267 
2906.804026  	92.682818 
2908.240904  	92.693363 
2909.677782  	92.692667 
2911.114660  	92.702046 
2912.551538  	92.760309 
2913.988416  	92.815770 
2915.425294  	92.818977 
2916.862172  	92.742504 
2918.299050  	92.662708 
2919.735928  	92.688230 
2921.172806  	92.711859 
2922.609684  	92.673872 
2924.046561  	92.677125 
2925.483439  	92.689781 
2926.920317  	92.684152 
2928.357195  	92.708232 
2929.794073  	92.719065 
2931.230951  	92.681732 
2932.667829  	92.636726 
2934.104707  	92.652492 
2935.541585  	92.684908 
2936.978463  	92.627627 
2938.415341  	92.581883 
2939.852219  	92.584622 
2941.289096  	92.497941 
2942.725974  	92.432451 
2944.162852  	92.510648 
2945.599730  	92.583043 
2947.036608  	92.563208 
2948.473486  	92.512793 
2949.910364  	92.513560 
2951.347242  	92.568334 
2952.784120  	92.581113 
2954.220998  	92.529308 
2955.657876  	92.460016 
2957.094754  	92.422958 
2958.531631  	92.436928 
2959.968509  	92.456046 
2961.405387  	92.486181 
2962.842265  	92.485942 
2964.279143  	92.410297 
2965.716021  	92.401769 
2967.152899  	92.428459 
2968.589777  	92.383117 
2970.026655  	92.417030 
2971.463533  	92.470875 
2972.900411  	92.401921 
2974.337289  	92.355837 
2975.774166  	92.340636 
2977.211044  	92.290799 
2978.647922  	92.275898 
2980.084800  	92.282339 
2981.521678  	92.317038 
2982.958556  	92.360766 
2984.395434  	92.314654 
2985.832312  	92.238357 
2987.269190  	92.223003 
2988.706068  	92.282884 
2990.142946  	92.379792 
2991.579824  	92.390924 
2993.016701  	92.315082 
2994.453579  	92.259333 
2995.890457  	92.259304 
2997.327335  	92.298711 
2998.764213  	92.318853 
3000.201091  	92.301908 
3001.637969  	92.246037 
3003.074847  	92.155963 
3004.511725  	92.174025 
3005.948603  	92.279305 
3007.385481  	92.279950 
3008.822359  	92.253370 
3010.259236  	92.280455 
3011.696114  	92.267184 
3013.132992  	92.234983 
3014.569870  	92.218767 
3016.006748  	92.214333 
3017.443626  	92.249837 
3018.880504  	92.265133 
3020.317382  	92.215286 
3021.754260  	92.185096 
3023.191138  	92.212755 
3024.628016  	92.196825 
3026.064894  	92.124278 
3027.501771  	92.112252 
3028.938649  	92.096909 
3030.375527  	92.011466 
3031.812405  	92.017471 
3033.249283  	92.109234 
3034.686161  	92.144123 
3036.123039  	92.162399 
3037.559917  	92.191732 
3038.996795  	92.183781 
3040.433673  	92.146324 
3041.870551  	92.147832 
3043.307429  	92.168637 
3044.744306  	92.096933 
3046.181184  	92.048971 
3047.618062  	92.120360 
3049.054940  	92.129410 
3050.491818  	92.113090 
3051.928696  	92.185019 
3053.365574  	92.238516 
3054.802452  	92.258001 
3056.239330  	92.216033 
3057.676208  	92.158664 
3059.113086  	92.221540 
3060.549964  	92.195665 
3061.986842  	92.034577 
3063.423719  	92.046816 
3064.860597  	92.194192 
3066.297475  	92.242795 
3067.734353  	92.168787 
3069.171231  	92.133297 
3070.608109  	92.186513 
3072.044987  	92.118693 
3073.481865  	92.058931 
3074.918743  	92.201411 
3076.355621  	92.201990 
3077.792499  	92.073661 
3079.229377  	92.118067 
3080.666254  	92.148878 
3082.103132  	92.126199 
3083.540010  	92.178654 
3084.976888  	92.205626 
3086.413766  	92.205337 
3087.850644  	92.168915 
3089.287522  	92.117298 
3090.724400  	92.171574 
3092.161278  	92.231124 
3093.598156  	92.230713 
3095.035034  	92.231911 
3096.471912  	92.217491 
3097.908789  	92.214795 
3099.345667  	92.223004 
3100.782545  	92.244985 
3102.219423  	92.274912 
3103.656301  	92.193829 
3105.093179  	92.128099 
3106.530057  	92.230900 
3107.966935  	92.293298 
3109.403813  	92.220632 
3110.840691  	92.166807 
3112.277569  	92.199778 
3113.714447  	92.244403 
3115.151324  	92.223522 
3116.588202  	92.217938 
3118.025080  	92.239515 
3119.461958  	92.203309 
3120.898836  	92.225510 
3122.335714  	92.323610 
3123.772592  	92.322371 
3125.209470  	92.229561 
3126.646348  	92.159981 
3128.083226  	92.154986 
3129.520104  	92.187586 
3130.956982  	92.215099 
3132.393859  	92.212800 
3133.830737  	92.163783 
3135.267615  	92.173209 
3136.704493  	92.249314 
3138.141371  	92.241530 
3139.578249  	92.224864 
3141.015127  	92.222693 
3142.452005  	92.142095 
3143.888883  	92.132343 
3145.325761  	92.174496 
3146.762639  	92.148964 
3148.199517  	92.167857 
3149.636394  	92.195346 
3151.073272  	92.179589 
3152.510150  	92.135577 
3153.947028  	92.022442 
3155.383906  	92.038906 
3156.820784  	92.208742 
3158.257662  	92.262337 
3159.694540  	92.231121 
3161.131418  	92.190729 
3162.568296  	92.164152 
3164.005174  	92.240860 
3165.442052  	92.260996 
3166.878929  	92.170561 
3168.315807  	92.160186 
3169.752685  	92.196853 
3171.189563  	92.199343 
3172.626441  	92.229943 
3174.063319  	92.292200 
3175.500197  	92.304891 
3176.937075  	92.251763 
3178.373953  	92.173605 
3179.810831  	92.066192 
3181.247709  	92.092555 
3182.684587  	92.309850 
3184.121464  	92.319155 
3185.558342  	92.124412 
3186.995220  	92.102457 
3188.432098  	92.135113 
3189.868976  	92.167847 
3191.305854  	92.286374 
3192.742732  	92.291768 
3194.179610  	92.225720 
3195.616488  	92.217776 
3197.053366  	92.255112 
3198.490244  	92.375059 
3199.927122  	92.356098 
3201.363999  	92.133622 
3202.800877  	92.044965 
3204.237755  	92.133209 
3205.674633  	92.225542 
3207.111511  	92.248304 
3208.548389  	92.269610 
3209.985267  	92.424404 
3211.422145  	92.494718 
3212.859023  	92.344893 
3214.295901  	92.277117 
3215.732779  	92.317545 
3217.169657  	92.309590 
3218.606534  	92.343230 
3220.043412  	92.421139 
3221.480290  	92.419290 
3222.917168  	92.319237 
3224.354046  	92.245965 
3225.790924  	92.278085 
3227.227802  	92.304562 
3228.664680  	92.324930 
3230.101558  	92.414446 
3231.538436  	92.437432 
3232.975314  	92.353258 
3234.412192  	92.342982 
3235.849069  	92.393309 
3237.285947  	92.313204 
3238.722825  	92.194605 
3240.159703  	92.219202 
3241.596581  	92.241326 
3243.033459  	92.226025 
3244.470337  	92.328740 
3245.907215  	92.415381 
3247.344093  	92.409143 
3248.780971  	92.446691 
3250.217849  	92.510560 
3251.654727  	92.499918 
3253.091604  	92.382200 
3254.528482  	92.332634 
3255.965360  	92.413048 
3257.402238  	92.359491 
3258.839116  	92.299491 
3260.275994  	92.423741 
3261.712872  	92.486005 
3263.149750  	92.488696 
3264.586628  	92.440318 
3266.023506  	92.293656 
3267.460384  	92.347446 
3268.897262  	92.449820 
3270.334139  	92.336791 
3271.771017  	92.300651 
3273.207895  	92.357765 
3274.644773  	92.371922 
3276.081651  	92.406032 
3277.518529  	92.430194 
3278.955407  	92.503546 
3280.392285  	92.522058 
3281.829163  	92.384572 
3283.266041  	92.355529 
3284.702919  	92.404692 
3286.139797  	92.428525 
3287.576674  	92.531149 
3289.013552  	92.523928 
3290.450430  	92.420051 
3291.887308  	92.442988 
3293.324186  	92.462580 
3294.761064  	92.435239 
3296.197942  	92.454132 
3297.634820  	92.487220 
3299.071698  	92.534631 
3300.508576  	92.601978 
3301.945454  	92.667496 
3303.382332  	92.667317 
3304.819210  	92.649441 
3306.256087  	92.716897 
3307.692965  	92.714205 
3309.129843  	92.647733 
3310.566721  	92.659166 
3312.003599  	92.615905 
3313.440477  	92.595092 
3314.877355  	92.623055 
3316.314233  	92.508398 
3317.751111  	92.522225 
3319.187989  	92.693202 
3320.624867  	92.648713 
3322.061745  	92.577004 
3323.498622  	92.661503 
3324.935500  	92.744529 
3326.372378  	92.797422 
3327.809256  	92.742522 
3329.246134  	92.655665 
3330.683012  	92.746615 
3332.119890  	92.871733 
3333.556768  	92.893382 
3334.993646  	92.873600 
3336.430524  	92.820824 
3337.867402  	92.806946 
3339.304280  	92.903487 
3340.741157  	92.997145 
3342.178035  	92.999085 
3343.614913  	93.028641 
3345.051791  	93.106190 
3346.488669  	93.045646 
3347.925547  	92.948506 
3349.362425  	93.027229 
3350.799303  	93.106315 
3352.236181  	93.094917 
3353.673059  	93.112332 
3355.109937  	93.021009 
3356.546815  	92.814519 
3357.983692  	92.831371 
3359.420570  	93.012430 
3360.857448  	92.990911 
3362.294326  	92.917293 
3363.731204  	93.044099 
3365.168082  	93.106038 
3366.604960  	93.017699 
3368.041838  	93.010132 
3369.478716  	93.075643 
3370.915594  	93.166412 
3372.352472  	93.222580 
3373.789350  	93.188744 
3375.226227  	93.211978 
3376.663105  	93.239957 
3378.099983  	93.176923 
3379.536861  	93.143336 
3380.973739  	93.094052 
3382.410617  	93.063246 
3383.847495  	93.106008 
3385.284373  	93.024701 
3386.721251  	92.954886 
3388.158129  	93.085835 
3389.595007  	93.178426 
3391.031885  	93.106074 
3392.468762  	92.985270 
3393.905640  	92.989025 
3395.342518  	93.086607 
3396.779396  	93.104328 
3398.216274  	93.230852 
3399.653152  	93.418923 
3401.090030  	93.290538 
3402.526908  	93.105424 
3403.963786  	93.186954 
3405.400664  	93.321645 
3406.837542  	93.357655 
3408.274420  	93.316321 
3409.711297  	93.333394 
3411.148175  	93.436288 
3412.585053  	93.450068 
3414.021931  	93.460467 
3415.458809  	93.491555 
3416.895687  	93.371163 
3418.332565  	93.276280 
3419.769443  	93.330804 
3421.206321  	93.331468 
3422.643199  	93.224580 
3424.080077  	93.187595 
3425.516955  	93.323754 
3426.953832  	93.472631 
3428.390710  	93.487583 
3429.827588  	93.414521 
3431.264466  	93.313717 
3432.701344  	93.326798 
3434.138222  	93.390668 
3435.575100  	93.336358 
3437.011978  	93.410043 
3438.448856  	93.564980 
3439.885734  	93.507528 
3441.322612  	93.482848 
3442.759490  	93.519721 
3444.196367  	93.448620 
3445.633245  	93.493208 
3447.070123  	93.583759 
3448.507001  	93.544222 
3449.943879  	93.554030 
3451.380757  	93.603075 
3452.817635  	93.568829 
3454.254513  	93.463154 
3455.691391  	93.418923 
3457.128269  	93.507197 
3458.565147  	93.500343 
3460.002025  	93.395720 
3461.438902  	93.444771 
3462.875780  	93.530844 
3464.312658  	93.530122 
3465.749536  	93.532869 
3467.186414  	93.503951 
3468.623292  	93.474320 
3470.060170  	93.543391 
3471.497048  	93.573601 
3472.933926  	93.459704 
3474.370804  	93.465828 
3475.807682  	93.643043 
3477.244560  	93.624747 
3478.681437  	93.565521 
3480.118315  	93.700840 
3481.555193  	93.655387 
3482.992071  	93.494486 
3484.428949  	93.549500 
3485.865827  	93.558544 
3487.302705  	93.479262 
3488.739583  	93.472968 
3490.176461  	93.538090 
3491.613339  	93.704006 
3493.050217  	93.722391 
3494.487095  	93.515002 
3495.923972  	93.433314 
3497.360850  	93.499417 
3498.797728  	93.597510 
3500.234606  	93.704718 
3501.671484  	93.683567 
3503.108362  	93.561648 
3504.545240  	93.528842 
3505.982118  	93.707433 
3507.418996  	93.928342 
3508.855874  	93.891811 
3510.292752  	93.772463 
3511.729630  	93.793711 
3513.166507  	93.721054 
3514.603385  	93.646795 
3516.040263  	93.736548 
3517.477141  	93.776639 
3518.914019  	93.699449 
3520.350897  	93.646951 
3521.787775  	93.718119 
3523.224653  	93.805121 
3524.661531  	93.731160 
3526.098409  	93.644123 
3527.535287  	93.648269 
3528.972165  	93.707205 
3530.409043  	93.834878 
3531.845920  	93.902606 
3533.282798  	93.893461 
3534.719676  	93.845283 
3536.156554  	93.675355 
3537.593432  	93.555775 
3539.030310  	93.564893 
3540.467188  	93.521838 
3541.904066  	93.529829 
3543.340944  	93.633727 
3544.777822  	93.693561 
3546.214700  	93.668760 
3547.651578  	93.621653 
3549.088455  	93.643908 
3550.525333  	93.676686 
3551.962211  	93.689140 
3553.399089  	93.752284 
3554.835967  	93.767270 
3556.272845  	93.778647 
3557.709723  	93.857947 
3559.146601  	93.795097 
3560.583479  	93.650376 
3562.020357  	93.632667 
3563.457235  	93.744341 
3564.894113  	94.040243 
3566.330990  	94.238373 
3567.767868  	93.837259 
3569.204746  	93.440433 
3570.641624  	93.625779 
3572.078502  	93.998983 
3573.515380  	94.134550 
3574.952258  	94.044626 
3576.389136  	94.013635 
3577.826014  	93.859596 
3579.262892  	93.571463 
3580.699770  	93.557021 
3582.136648  	93.670962 
3583.573525  	93.772967 
3585.010403  	94.008489 
3586.447281  	94.063693 
3587.884159  	93.716275 
3589.321037  	93.538813 
3590.757915  	93.749199 
3592.194793  	94.020280 
3593.631671  	94.174584 
3595.068549  	94.260753 
3596.505427  	94.269278 
3597.942305  	94.076867 
3599.379183  	94.001450 
3600.816060  	94.049798 
3602.252938  	93.962485 
3603.689816  	94.041438 
3605.126694  	94.204480 
3606.563572  	94.226429 
3608.000450  	94.334553 
3609.437328  	94.300531 
3610.874206  	94.057202 
3612.311084  	94.060708 
3613.747962  	94.185500 
3615.184840  	94.388132 
3616.621718  	94.628462 
3618.058595  	94.670516 
3619.495473  	94.558104 
3620.932351  	94.294329 
3622.369229  	94.032548 
3623.806107  	94.161116 
3625.242985  	94.450265 
3626.679863  	94.640712 
3628.116741  	94.767640 
3629.553619  	94.361452 
3630.990497  	94.159173 
3632.427375  	94.415301 
3633.864253  	94.522451 
3635.301130  	94.865964 
3636.738008  	95.453738 
3638.174886  	95.377912 
3639.611764  	94.807666 
3641.048642  	94.690210 
3642.485520  	94.700423 
3643.922398  	94.649456 
3645.359276  	94.988448 
3646.796154  	95.374342 
3648.233032  	95.229105 
3649.669910  	95.025809 
3651.106788  	94.797936 
3652.543665  	94.643624 
3653.980543  	95.105441 
3655.417421  	95.683310 
3656.854299  	95.645924 
3658.291177  	95.359371 
3659.728055  	95.343147 
3661.164933  	95.217670 
3662.601811  	95.104608 
3664.038689  	95.159226 
3665.475567  	95.249905 
3666.912445  	95.414372 
3668.349323  	95.591017 
3669.786200  	95.409369 
3671.223078  	94.848402 
3672.659956  	95.133362 
3674.096834  	95.923089 
3675.533712  	96.243199 
3676.970590  	95.613177 
3678.407468  	95.744255 
3679.844346  	95.649658 
3681.281224  	95.231454 
3682.718102  	95.311574 
3684.154980  	95.275542 
3685.591858  	95.089738 
3687.028735  	95.488786 
3688.465613  	95.755385 
3689.902491  	95.238273 
3691.339369  	95.312253 
3692.776247  	95.576924 
3694.213125  	95.480124 
3695.650003  	95.468878 
3697.086881  	95.567545 
3698.523759  	95.671817 
3699.960637  	95.813210 
3701.397515  	95.741023 
3702.834393  	95.392201 
3704.271270  	95.265512 
3705.708148  	95.334397 
3707.145026  	95.451544 
3708.581904  	95.643813 
3710.018782  	95.749802 
3711.455660  	95.629680 
3712.892538  	95.537998 
3714.329416  	95.522823 
3715.766294  	95.515079 
3717.203172  	95.584285 
3718.640050  	95.568046 
3720.076928  	95.435043 
3721.513805  	95.355531 
3722.950683  	95.238638 
3724.387561  	95.128399 
3725.824439  	95.086031 
3727.261317  	95.010858 
3728.698195  	95.151513 
3730.135073  	95.475754 
3731.571951  	95.577734 
3733.008829  	95.260914 
3734.445707  	95.060494 
3735.882585  	94.911919 
3737.319463  	94.939076 
3738.756340  	95.435707 
3740.193218  	95.600642 
3741.630096  	95.265311 
3743.066974  	95.205061 
3744.503852  	95.141072 
3745.940730  	94.538980 
3747.377608  	94.816353 
3748.814486  	95.186626 
3750.251364  	95.246215 
3751.688242  	95.417328 
3753.125120  	95.203659 
3754.561998  	94.871823 
3755.998875  	95.066898 
3757.435753  	95.097027 
3758.872631  	94.913244 
3760.309509  	95.091303 
3761.746387  	95.047536 
3763.183265  	94.902270 
3764.620143  	95.028525 
3766.057021  	94.990710 
3767.493899  	95.053015 
3768.930777  	95.405190 
3770.367655  	95.327473 
3771.804533  	94.957464 
3773.241411  	94.983238 
3774.678288  	95.119947 
3776.115166  	95.181891 
3777.552044  	95.226754 
3778.988922  	95.191526 
3780.425800  	95.121181 
3781.862678  	95.180504 
3783.299556  	95.213545 
3784.736434  	95.104243 
3786.173312  	95.134479 
3787.610190  	95.283049 
3789.047068  	95.231476 
3790.483946  	95.123305 
3791.920823  	95.139733 
3793.357701  	95.154441 
3794.794579  	95.224882 
3796.231457  	95.335442 
3797.668335  	95.267485 
3799.105213  	95.197421 
3800.542091  	95.326789 
3801.978969  	95.456663 
3803.415847  	95.294832 
3804.852725  	95.239453 
3806.289603  	95.420120 
3807.726481  	95.440204 
3809.163358  	95.214426 
3810.600236  	95.181561 
3812.037114  	95.135934 
3813.473992  	95.061948 
3814.910870  	95.122736 
3816.347748  	95.026374 
3817.784626  	95.008970 
3819.221504  	95.322054 
3820.658382  	95.404710 
3822.095260  	95.089574 
3823.532138  	95.233483 
3824.969016  	95.382996 
3826.405893  	95.232743 
3827.842771  	95.072047 
3829.279649  	95.136490 
3830.716527  	95.128003 
3832.153405  	95.052665 
3833.590283  	95.118349 
3835.027161  	95.068870 
3836.464039  	94.837050 
3837.900917  	94.916447 
3839.337795  	95.272558 
3840.774673  	95.291822 
3842.211551  	95.163167 
3843.648428  	95.163221 
3845.085306  	95.082449 
3846.522184  	94.879109 
3847.959062  	94.814724 
3849.395940  	95.004476 
3850.832818  	95.238387 
3852.269696  	95.320710 
3853.706574  	94.914052 
3855.143452  	94.738052 
3856.580330  	94.900228 
3858.017208  	94.836204 
3859.454086  	95.087924 
3860.890963  	95.531362 
3862.327841  	95.259717 
3863.764719  	94.735362 
3865.201597  	94.760981 
3866.638475  	94.702208 
3868.075353  	94.730217 
3869.512231  	95.043655 
3870.949109  	95.204763 
3872.385987  	95.256864 
3873.822865  	95.016800 
3875.259743  	94.435234 
3876.696621  	94.680045 
3878.133498  	95.093924 
3879.570376  	95.056181 
3881.007254  	95.045982 
3882.444132  	95.040518 
3883.881010  	94.759647 
3885.317888  	94.565636 
3886.754766  	94.598095 
3888.191644  	94.867559 
3889.628522  	95.066138 
3891.065400  	95.019075 
3892.502278  	94.863935 
3893.939156  	94.772789 
3895.376033  	94.631876 
3896.812911  	94.720799 
3898.249789  	94.964210 
3899.686667  	94.835742 
3901.123545  	94.545722 
3902.560423  	94.760669 
3903.997301  	94.989143 
3905.434179  	94.753541 
3906.871057  	94.688420 
3908.307935  	94.904891 
3909.744813  	94.994256 
3911.181691  	94.917959 
3912.618568  	94.792344 
3914.055446  	94.745011 
3915.492324  	94.780716 
3916.929202  	94.695575 
3918.366080  	94.646494 
3919.802958  	94.758922 
3921.239836  	94.803332 
3922.676714  	94.846514 
3924.113592  	94.845007 
3925.550470  	94.644789 
3926.987348  	94.695112 
3928.424226  	94.948098 
3929.861103  	94.992112 
3931.297981  	94.907941 
3932.734859  	94.837786 
3934.171737  	94.825286 
3935.608615  	94.956442 
3937.045493  	94.994589 
3938.482371  	94.821598 
3939.919249  	94.780396 
3941.356127  	94.891863 
3942.793005  	94.875118 
3944.229883  	94.692022 
3945.666761  	94.650816 
3947.103638  	94.787249 
3948.540516  	94.860846 
3949.977394  	94.883876 
3951.414272  	94.941927 
3952.851150  	94.905460 
3954.288028  	94.846909 
3955.724906  	94.843938 
3957.161784  	94.795817 
3958.598662  	94.763684 
3960.035540  	94.825230 
3961.472418  	94.828419 
3962.909296  	94.771151 
3964.346173  	94.779421 
3965.783051  	94.854771 
3967.219929  	94.931405 
3968.656807  	94.973870 
3970.093685  	94.905077 
3971.530563  	94.767607 
3972.967441  	94.771907 
3974.404319  	94.885316 
3975.841197  	94.930193 
3977.278075  	94.932406 
3978.714953  	94.924349 
3980.151831  	94.909382 
3981.588708  	94.909759 
3983.025586  	94.913082 
3984.462464  	94.956297 
3985.899342  	94.969013 
3987.336220  	94.901905 
3988.773098  	94.907902 
3990.209976  	94.951423 
3991.646854  	94.956269 
3993.083732  	94.997740 
3994.520610  	94.979702 
3995.957488  	94.930280 
3997.394366  	94.998834 
3998.831244  	95.002490 
4000.268121  	94.858293 