##TITLE=No Description
##DATA TYPE=INFRARED SPECTRUM
##XUNITS=1/CM
##YUNITS=%T
399.452061  	62.161269 
400.888939  	65.968261 
402.325817  	67.019982 
403.762695  	65.340997 
405.199573  	64.601424 
406.636451  	64.720310 
408.073328  	64.922863 
409.510206  	64.864440 
410.947084  	64.024541 
412.383962  	64.857008 
413.820840  	66.684009 
415.257718  	66.633515 
416.694596  	66.109743 
418.131474  	66.252063 
419.568352  	66.138664 
421.005230  	65.862726 
422.442108  	66.297878 
423.878986  	66.249602 
425.315863  	65.174631 
426.752741  	65.163966 
428.189619  	65.947636 
429.626497  	65.890710 
431.063375  	66.149077 
432.500253  	66.957879 
433.937131  	67.182213 
435.374009  	67.113402 
436.810887  	66.445211 
438.247765  	65.769227 
439.684643  	65.804157 
441.121521  	66.054352 
442.558398  	66.903881 
443.995276  	66.924659 
445.432154  	65.546978 
446.869032  	65.664358 
448.305910  	67.140609 
449.742788  	67.729103 
451.179666  	67.462881 
452.616544  	66.771069 
454.053422  	66.904285 
455.490300  	67.625059 
456.927178  	67.518499 
458.364056  	67.321727 
459.800933  	67.220385 
461.237811  	66.416730 
462.674689  	66.144658 
464.111567  	66.887079 
465.548445  	67.473212 
466.985323  	67.201019 
468.422201  	66.646974 
469.859079  	66.949990 
471.295957  	67.295314 
472.732835  	67.076497 
474.169713  	67.655408 
475.606591  	68.385660 
477.043469  	68.389664 
478.480346  	68.335885 
479.917224  	68.439767 
481.354102  	68.380329 
482.790980  	68.230951 
484.227858  	68.421499 
485.664736  	68.613385 
487.101614  	68.238222 
488.538492  	68.088784 
489.975370  	68.458914 
491.412248  	68.621864 
492.849126  	68.578443 
494.286004  	68.454887 
495.722881  	68.390657 
497.159759  	68.777911 
498.596637  	69.119467 
500.033515  	68.974599 
501.470393  	68.679997 
502.907271  	68.738675 
504.344149  	69.084834 
505.781027  	69.180993 
507.217905  	69.216265 
508.654783  	69.325913 
510.091661  	69.169210 
511.528539  	69.246212 
512.965416  	69.417435 
514.402294  	69.133921 
515.839172  	69.091950 
517.276050  	69.262521 
518.712928  	69.223552 
520.149806  	69.412154 
521.586684  	69.471561 
523.023562  	69.526660 
524.460440  	70.029236 
525.897318  	70.207826 
527.334196  	69.960712 
528.771074  	69.860826 
530.207951  	69.825226 
531.644829  	70.065360 
533.081707  	70.399645 
534.518585  	70.479144 
535.955463  	70.549583 
537.392341  	70.596868 
538.829219  	70.554121 
540.266097  	70.437917 
541.702975  	70.304162 
543.139853  	70.442148 
544.576731  	70.606461 
546.013609  	70.531370 
547.450486  	70.478320 
548.887364  	70.533780 
550.324242  	70.771850 
551.761120  	70.953803 
553.197998  	70.862067 
554.634876  	71.036132 
556.071754  	71.392065 
557.508632  	71.399371 
558.945510  	71.290875 
560.382388  	71.226538 
561.819266  	71.248721 
563.256144  	71.404363 
564.693021  	71.461356 
566.129899  	71.467913 
567.566777  	71.477027 
569.003655  	71.408927 
570.440533  	71.442912 
571.877411  	71.568693 
573.314289  	71.699311 
574.751167  	71.804210 
576.188045  	71.792764 
577.624923  	71.831247 
579.061801  	71.940861 
580.498679  	71.958729 
581.935556  	71.997728 
583.372434  	72.067745 
584.809312  	72.090843 
586.246190  	72.086866 
587.683068  	72.072241 
589.119946  	72.186441 
590.556824  	72.336544 
591.993702  	72.290953 
593.430580  	72.263060 
594.867458  	72.381281 
596.304336  	72.405722 
597.741214  	72.284524 
599.178091  	72.275410 
600.614969  	72.439257 
602.051847  	72.412416 
603.488725  	72.273204 
604.925603  	72.446896 
606.362481  	72.617446 
607.799359  	72.553071 
609.236237  	72.567327 
610.673115  	72.749286 
612.109993  	72.870483 
613.546871  	72.975963 
614.983749  	73.142664 
616.420626  	73.278521 
617.857504  	73.368860 
619.294382  	73.424294 
620.731260  	73.434620 
622.168138  	73.543684 
623.605016  	73.739221 
625.041894  	73.853526 
626.478772  	73.934018 
627.915650  	74.063968 
629.352528  	74.136142 
630.789406  	74.207266 
632.226284  	74.382453 
633.663161  	74.377765 
635.100039  	74.388971 
636.536917  	74.568018 
637.973795  	74.657047 
639.410673  	74.633893 
640.847551  	74.643847 
642.284429  	74.684757 
643.721307  	74.692679 
645.158185  	74.668359 
646.595063  	74.708038 
648.031941  	74.820569 
649.468819  	74.841911 
650.905696  	74.832720 
652.342574  	74.921454 
653.779452  	75.063455 
655.216330  	75.156407 
656.653208  	75.185099 
658.090086  	75.267641 
659.526964  	75.357420 
660.963842  	75.381579 
662.400720  	75.412884 
663.837598  	75.469049 
665.274476  	75.561670 
666.711354  	75.702577 
668.148231  	75.682422 
669.585109  	75.628427 
671.021987  	75.709232 
672.458865  	75.792318 
673.895743  	75.897636 
675.332621  	75.983278 
676.769499  	75.957684 
678.206377  	75.945144 
679.643255  	76.036287 
681.080133  	76.135544 
682.517011  	76.145582 
683.953889  	76.126083 
685.390766  	76.214833 
686.827644  	76.310443 
688.264522  	76.319130 
689.701400  	76.343524 
691.138278  	76.369337 
692.575156  	76.381742 
694.012034  	76.425391 
695.448912  	76.491658 
696.885790  	76.578823 
698.322668  	76.676543 
699.759546  	76.745544 
701.196424  	76.828486 
702.633301  	76.916344 
704.070179  	76.977983 
705.507057  	77.005090 
706.943935  	76.982111 
708.380813  	77.021767 
709.817691  	77.073583 
711.254569  	77.059146 
712.691447  	77.095046 
714.128325  	77.130968 
715.565203  	77.139854 
717.002081  	77.174825 
718.438959  	77.182245 
719.875837  	77.208979 
721.312714  	77.273816 
722.749592  	77.331539 
724.186470  	77.461689 
725.623348  	77.552109 
727.060226  	77.491781 
728.497104  	77.485339 
729.933982  	77.463564 
731.370860  	77.458398 
732.807738  	77.576075 
734.244616  	77.654670 
735.681494  	77.762012 
737.118372  	77.883142 
738.555249  	77.806268 
739.992127  	77.720026 
741.429005  	77.752972 
742.865883  	77.788032 
744.302761  	77.861184 
745.739639  	77.954875 
747.176517  	77.987697 
748.613395  	77.971230 
750.050273  	77.941637 
751.487151  	77.912955 
752.924029  	77.877316 
754.360907  	77.890823 
755.797784  	77.930179 
757.234662  	77.923692 
758.671540  	77.982254 
760.108418  	78.083954 
761.545296  	78.100709 
762.982174  	78.100694 
764.419052  	78.110873 
765.855930  	78.117486 
767.292808  	78.134508 
768.729686  	78.171178 
770.166564  	78.288432 
771.603442  	78.337944 
773.040319  	78.219292 
774.477197  	78.176772 
775.914075  	78.253703 
777.350953  	78.305894 
778.787831  	78.298522 
780.224709  	78.228337 
781.661587  	78.223923 
783.098465  	78.311846 
784.535343  	78.362220 
785.972221  	78.381573 
787.409099  	78.360998 
788.845977  	78.359225 
790.282854  	78.449203 
791.719732  	78.479427 
793.156610  	78.450437 
794.593488  	78.457621 
796.030366  	78.494198 
797.467244  	78.598360 
798.904122  	78.635360 
800.341000  	78.546938 
801.777878  	78.514029 
803.214756  	78.504587 
804.651634  	78.471275 
806.088512  	78.452651 
807.525389  	78.433953 
808.962267  	78.487701 
810.399145  	78.529452 
811.836023  	78.503594 
813.272901  	78.542802 
814.709779  	78.514377 
816.146657  	78.411153 
817.583535  	78.452163 
819.020413  	78.506439 
820.457291  	78.480852 
821.894169  	78.481516 
823.331047  	78.471354 
824.767924  	78.451308 
826.204802  	78.466879 
827.641680  	78.484764 
829.078558  	78.450970 
830.515436  	78.363015 
831.952314  	78.318346 
833.389192  	78.333915 
834.826070  	78.369900 
836.262948  	78.405937 
837.699826  	78.352877 
839.136704  	78.266087 
840.573582  	78.227527 
842.010459  	78.175225 
843.447337  	78.163660 
844.884215  	78.172139 
846.321093  	78.120857 
847.757971  	78.100031 
849.194849  	78.063303 
850.631727  	77.984977 
852.068605  	77.975509 
853.505483  	77.967835 
854.942361  	77.938255 
856.379239  	77.908685 
857.816117  	77.834904 
859.252994  	77.784084 
860.689872  	77.743593 
862.126750  	77.693561 
863.563628  	77.698481 
865.000506  	77.669691 
866.437384  	77.605248 
867.874262  	77.570833 
869.311140  	77.505628 
870.748018  	77.457100 
872.184896  	77.445047 
873.621774  	77.421333 
875.058652  	77.421659 
876.495529  	77.397767 
877.932407  	77.348206 
879.369285  	77.321614 
880.806163  	77.265568 
882.243041  	77.232378 
883.679919  	77.242082 
885.116797  	77.187169 
886.553675  	77.098664 
887.990553  	77.072969 
889.427431  	77.106324 
890.864309  	77.104887 
892.301187  	77.060900 
893.738064  	77.064731 
895.174942  	77.047122 
896.611820  	76.974108 
898.048698  	76.938849 
899.485576  	76.917159 
900.922454  	76.948041 
902.359332  	77.036824 
903.796210  	77.026339 
905.233088  	76.968699 
906.669966  	76.980341 
908.106844  	77.024095 
909.543722  	77.068520 
910.980599  	77.076166 
912.417477  	77.072685 
913.854355  	77.077351 
915.291233  	77.027684 
916.728111  	77.005858 
918.164989  	77.071404 
919.601867  	77.125384 
921.038745  	77.130774 
922.475623  	77.118085 
923.912501  	77.133393 
925.349379  	77.156373 
926.786257  	77.148369 
928.223134  	77.186731 
929.660012  	77.246483 
931.096890  	77.255636 
932.533768  	77.274994 
933.970646  	77.302709 
935.407524  	77.319046 
936.844402  	77.342023 
938.281280  	77.373222 
939.718158  	77.448144 
941.155036  	77.508643 
942.591914  	77.519308 
944.028792  	77.545958 
945.465670  	77.558751 
946.902547  	77.594622 
948.339425  	77.689860 
949.776303  	77.754638 
951.213181  	77.818517 
952.650059  	77.869025 
954.086937  	77.886776 
955.523815  	77.983788 
956.960693  	78.068618 
958.397571  	78.071301 
959.834449  	78.106589 
961.271327  	78.156242 
962.708205  	78.210429 
964.145082  	78.251465 
965.581960  	78.243751 
967.018838  	78.304976 
968.455716  	78.384351 
969.892594  	78.398320 
971.329472  	78.475451 
972.766350  	78.570676 
974.203228  	78.600203 
975.640106  	78.648352 
977.076984  	78.721994 
978.513862  	78.772203 
979.950740  	78.780658 
981.387617  	78.808138 
982.824495  	78.891585 
984.261373  	78.919288 
985.698251  	78.915824 
987.135129  	78.978186 
988.572007  	79.038603 
990.008885  	79.066179 
991.445763  	79.071353 
992.882641  	79.069842 
994.319519  	79.079370 
995.756397  	79.037915 
997.193275  	79.020205 
998.630152  	79.089233 
1000.067030  	79.074453 
1001.503908  	78.978084 
1002.940786  	78.957938 
1004.377664  	78.990210 
1005.814542  	78.980878 
1007.251420  	78.921952 
1008.688298  	78.895036 
1010.125176  	78.908091 
1011.562054  	78.900677 
1012.998932  	78.889177 
1014.435810  	78.847427 
1015.872687  	78.793276 
1017.309565  	78.776603 
1018.746443  	78.715533 
1020.183321  	78.671695 
1021.620199  	78.682840 
1023.057077  	78.610239 
1024.493955  	78.553245 
1025.930833  	78.558912 
1027.367711  	78.507514 
1028.804589  	78.475777 
1030.241467  	78.457640 
1031.678345  	78.427012 
1033.115222  	78.441812 
1034.552100  	78.375935 
1035.988978  	78.267704 
1037.425856  	78.255451 
1038.862734  	78.247355 
1040.299612  	78.231734 
1041.736490  	78.211836 
1043.173368  	78.162070 
1044.610246  	78.146945 
1046.047124  	78.108098 
1047.484002  	78.056411 
1048.920880  	78.068442 
1050.357757  	78.055631 
1051.794635  	78.014793 
1053.231513  	77.971470 
1054.668391  	77.933634 
1056.105269  	77.963782 
1057.542147  	77.952299 
1058.979025  	77.861444 
1060.415903  	77.821457 
1061.852781  	77.827828 
1063.289659  	77.856177 
1064.726537  	77.870767 
1066.163415  	77.839181 
1067.600292  	77.824633 
1069.037170  	77.817025 
1070.474048  	77.818425 
1071.910926  	77.849149 
1073.347804  	77.886961 
1074.784682  	77.973609 
1076.221560  	78.032685 
1077.658438  	78.016543 
1079.095316  	78.034839 
1080.532194  	78.066658 
1081.969072  	78.133009 
1083.405950  	78.253145 
1084.842827  	78.297553 
1086.279705  	78.315209 
1087.716583  	78.356332 
1089.153461  	78.390198 
1090.590339  	78.473421 
1092.027217  	78.536699 
1093.464095  	78.568531 
1094.900973  	78.643490 
1096.337851  	78.698803 
1097.774729  	78.766821 
1099.211607  	78.832248 
1100.648485  	78.827930 
1102.085362  	78.896356 
1103.522240  	79.017845 
1104.959118  	79.074175 
1106.395996  	79.132825 
1107.832874  	79.205509 
1109.269752  	79.274591 
1110.706630  	79.325388 
1112.143508  	79.357470 
1113.580386  	79.473400 
1115.017264  	79.616531 
1116.454142  	79.682005 
1117.891020  	79.741350 
1119.327897  	79.821746 
1120.764775  	79.909149 
1122.201653  	79.993895 
1123.638531  	80.067470 
1125.075409  	80.168672 
1126.512287  	80.244595 
1127.949165  	80.291160 
1129.386043  	80.405559 
1130.822921  	80.532972 
1132.259799  	80.623851 
1133.696677  	80.719592 
1135.133555  	80.810095 
1136.570432  	80.883787 
1138.007310  	80.932661 
1139.444188  	80.990394 
1140.881066  	81.079990 
1142.317944  	81.128498 
1143.754822  	81.167844 
1145.191700  	81.262108 
1146.628578  	81.342986 
1148.065456  	81.385110 
1149.502334  	81.426392 
1150.939212  	81.491473 
1152.376090  	81.557552 
1153.812967  	81.584895 
1155.249845  	81.640053 
1156.686723  	81.742500 
1158.123601  	81.828088 
1159.560479  	81.914442 
1160.997357  	81.975890 
1162.434235  	82.000472 
1163.871113  	82.073855 
1165.307991  	82.181308 
1166.744869  	82.273651 
1168.181747  	82.348716 
1169.618625  	82.409412 
1171.055502  	82.486648 
1172.492380  	82.565097 
1173.929258  	82.640654 
1175.366136  	82.738921 
1176.803014  	82.819478 
1178.239892  	82.891991 
1179.676770  	82.975475 
1181.113648  	83.046726 
1182.550526  	83.132587 
1183.987404  	83.211663 
1185.424282  	83.283281 
1186.861160  	83.389759 
1188.298038  	83.472691 
1189.734915  	83.544268 
1191.171793  	83.645208 
1192.608671  	83.719072 
1194.045549  	83.793035 
1195.482427  	83.888759 
1196.919305  	83.975966 
1198.356183  	84.057351 
1199.793061  	84.090916 
1201.229939  	84.119498 
1202.666817  	84.200025 
1204.103695  	84.251993 
1205.540573  	84.291810 
1206.977450  	84.357724 
1208.414328  	84.407205 
1209.851206  	84.458423 
1211.288084  	84.478918 
1212.724962  	84.478583 
1214.161840  	84.546685 
1215.598718  	84.615629 
1217.035596  	84.661204 
1218.472474  	84.739378 
1219.909352  	84.804376 
1221.346230  	84.876984 
1222.783108  	84.960868 
1224.219985  	84.989548 
1225.656863  	85.039647 
1227.093741  	85.142621 
1228.530619  	85.213742 
1229.967497  	85.272020 
1231.404375  	85.346163 
1232.841253  	85.402749 
1234.278131  	85.449644 
1235.715009  	85.501177 
1237.151887  	85.547261 
1238.588765  	85.601015 
1240.025643  	85.661061 
1241.462520  	85.694849 
1242.899398  	85.739415 
1244.336276  	85.833775 
1245.773154  	85.906468 
1247.210032  	85.946918 
1248.646910  	86.011670 
1250.083788  	86.064727 
1251.520666  	86.088876 
1252.957544  	86.124063 
1254.394422  	86.176237 
1255.831300  	86.239439 
1257.268178  	86.288374 
1258.705055  	86.320809 
1260.141933  	86.375530 
1261.578811  	86.450488 
1263.015689  	86.532754 
1264.452567  	86.604731 
1265.889445  	86.647155 
1267.326323  	86.695466 
1268.763201  	86.745887 
1270.200079  	86.764586 
1271.636957  	86.797865 
1273.073835  	86.869812 
1274.510713  	86.927192 
1275.947590  	86.957293 
1277.384468  	87.014544 
1278.821346  	87.108821 
1280.258224  	87.167332 
1281.695102  	87.174393 
1283.131980  	87.194260 
1284.568858  	87.260628 
1286.005736  	87.361478 
1287.442614  	87.437604 
1288.879492  	87.455385 
1290.316370  	87.484442 
1291.753248  	87.559419 
1293.190125  	87.622863 
1294.627003  	87.650116 
1296.063881  	87.682836 
1297.500759  	87.734588 
1298.937637  	87.766891 
1300.374515  	87.789524 
1301.811393  	87.813988 
1303.248271  	87.829584 
1304.685149  	87.853855 
1306.122027  	87.876339 
1307.558905  	87.866985 
1308.995783  	87.868172 
1310.432660  	87.890013 
1311.869538  	87.884526 
1313.306416  	87.880517 
1314.743294  	87.896728 
1316.180172  	87.899119 
1317.617050  	87.882120 
1319.053928  	87.868135 
1320.490806  	87.866914 
1321.927684  	87.870282 
1323.364562  	87.852188 
1324.801440  	87.811731 
1326.238318  	87.786262 
1327.675195  	87.758028 
1329.112073  	87.725171 
1330.548951  	87.695938 
1331.985829  	87.680418 
1333.422707  	87.667977 
1334.859585  	87.618802 
1336.296463  	87.560802 
1337.733341  	87.512821 
1339.170219  	87.455020 
1340.607097  	87.409688 
1342.043975  	87.389245 
1343.480853  	87.368755 
1344.917730  	87.339648 
1346.354608  	87.303171 
1347.791486  	87.255049 
1349.228364  	87.212390 
1350.665242  	87.178661 
1352.102120  	87.159305 
1353.538998  	87.126504 
1354.975876  	87.077909 
1356.412754  	87.065332 
1357.849632  	87.073477 
1359.286510  	87.036038 
1360.723388  	86.978744 
1362.160265  	86.942926 
1363.597143  	86.948148 
1365.034021  	86.942254 
1366.470899  	86.895966 
1367.907777  	86.854087 
1369.344655  	86.846925 
1370.781533  	86.848531 
1372.218411  	86.828156 
1373.655289  	86.794056 
1375.092167  	86.791920 
1376.529045  	86.777632 
1377.965923  	86.742915 
1379.402800  	86.757010 
1380.839678  	86.795302 
1382.276556  	86.840258 
1383.713434  	86.900270 
1385.150312  	86.884583 
1386.587190  	86.845375 
1388.024068  	86.886272 
1389.460946  	86.886925 
1390.897824  	86.861063 
1392.334702  	86.884413 
1393.771580  	86.919355 
1395.208458  	86.946069 
1396.645335  	86.917185 
1398.082213  	86.868065 
1399.519091  	86.917537 
1400.955969  	86.995811 
1402.392847  	87.011514 
1403.829725  	87.021270 
1405.266603  	87.027803 
1406.703481  	87.060625 
1408.140359  	87.083711 
1409.577237  	87.062127 
1411.014115  	87.058042 
1412.450993  	87.139190 
1413.887871  	87.229259 
1415.324748  	87.213932 
1416.761626  	87.157313 
1418.198504  	87.199643 
1419.635382  	87.319813 
1421.072260  	87.381210 
1422.509138  	87.387414 
1423.946016  	87.413791 
1425.382894  	87.504302 
1426.819772  	87.555860 
1428.256650  	87.551621 
1429.693528  	87.572478 
1431.130406  	87.672657 
1432.567283  	87.721898 
1434.004161  	87.718706 
1435.441039  	87.755666 
1436.877917  	87.890407 
1438.314795  	87.971235 
1439.751673  	87.990405 
1441.188551  	88.066366 
1442.625429  	88.115116 
1444.062307  	88.128253 
1445.499185  	88.176083 
1446.936063  	88.217706 
1448.372941  	88.277399 
1449.809818  	88.338602 
1451.246696  	88.326520 
1452.683574  	88.318639 
1454.120452  	88.365439 
1455.557330  	88.513640 
1456.994208  	88.703530 
1458.431086  	88.639540 
1459.867964  	88.565021 
1461.304842  	88.581310 
1462.741720  	88.588840 
1464.178598  	88.655387 
1465.615476  	88.742720 
1467.052353  	88.695388 
1468.489231  	88.642923 
1469.926109  	88.661582 
1471.362987  	88.734399 
1472.799865  	88.827088 
1474.236743  	88.870707 
1475.673621  	88.875295 
1477.110499  	88.914556 
1478.547377  	88.940674 
1479.984255  	88.957758 
1481.421133  	88.980110 
1482.858011  	89.011006 
1484.294888  	89.054868 
1485.731766  	89.068323 
1487.168644  	89.054598 
1488.605522  	89.061741 
1490.042400  	89.139247 
1491.479278  	89.210182 
1492.916156  	89.201991 
1494.353034  	89.209877 
1495.789912  	89.237764 
1497.226790  	89.237746 
1498.663668  	89.250459 
1500.100546  	89.267260 
1501.537423  	89.278972 
1502.974301  	89.283898 
1504.411179  	89.266204 
1505.848057  	89.249059 
1507.284935  	89.176423 
1508.721813  	89.191293 
1510.158691  	89.196947 
1511.595569  	89.162683 
1513.032447  	89.136887 
1514.469325  	89.112472 
1515.906203  	89.052001 
1517.343081  	89.021873 
1518.779958  	89.020730 
1520.216836  	88.937515 
1521.653714  	88.855023 
1523.090592  	88.934637 
1524.527470  	88.923093 
1525.964348  	88.882913 
1527.401226  	88.843995 
1528.838104  	88.854293 
1530.274982  	88.799273 
1531.711860  	88.653821 
1533.148738  	88.632148 
1534.585616  	88.728300 
1536.022493  	88.608074 
1537.459371  	88.479232 
1538.896249  	88.387875 
1540.333127  	88.387888 
1541.770005  	88.454279 
1543.206883  	88.386473 
1544.643761  	88.290443 
1546.080639  	88.230313 
1547.517517  	88.169621 
1548.954395  	88.077263 
1550.391273  	87.933062 
1551.828151  	87.904972 
1553.265028  	87.909231 
1554.701906  	87.790252 
1556.138784  	87.664155 
1557.575662  	87.665816 
1559.012540  	87.702228 
1560.449418  	87.688124 
1561.886296  	87.498060 
1563.323174  	87.390212 
1564.760052  	87.327966 
1566.196930  	87.242649 
1567.633808  	87.163870 
1569.070686  	87.038778 
1570.507563  	86.949294 
1571.944441  	86.970714 
1573.381319  	86.894183 
1574.818197  	86.758877 
1576.255075  	86.751067 
1577.691953  	86.744966 
1579.128831  	86.653577 
1580.565709  	86.583957 
1582.002587  	86.522300 
1583.439465  	86.488502 
1584.876343  	86.412700 
1586.313221  	86.294358 
1587.750098  	86.272239 
1589.186976  	86.208152 
1590.623854  	86.107943 
1592.060732  	86.071424 
1593.497610  	86.005864 
1594.934488  	85.988229 
1596.371366  	86.001431 
1597.808244  	85.923581 
1599.245122  	85.863909 
1600.682000  	85.824031 
1602.118878  	85.792399 
1603.555756  	85.792334 
1604.992633  	85.738244 
1606.429511  	85.709230 
1607.866389  	85.647992 
1609.303267  	85.466689 
1610.740145  	85.484627 
1612.177023  	85.611647 
1613.613901  	85.549683 
1615.050779  	85.494089 
1616.487657  	85.490034 
1617.924535  	85.467612 
1619.361413  	85.446762 
1620.798291  	85.405677 
1622.235168  	85.393890 
1623.672046  	85.421376 
1625.108924  	85.413538 
1626.545802  	85.395831 
1627.982680  	85.433274 
1629.419558  	85.584467 
1630.856436  	85.679926 
1632.293314  	85.593113 
1633.730192  	85.580267 
1635.167070  	85.859222 
1636.603948  	86.101638 
1638.040826  	86.077618 
1639.477703  	86.083611 
1640.914581  	86.183218 
1642.351459  	86.362803 
1643.788337  	86.480498 
1645.225215  	86.516269 
1646.662093  	86.607118 
1648.098971  	86.754529 
1649.535849  	86.843601 
1650.972727  	86.967245 
1652.409605  	87.206876 
1653.846483  	87.671849 
1655.283361  	87.657997 
1656.720239  	87.556817 
1658.157116  	87.727039 
1659.593994  	87.955841 
1661.030872  	88.064129 
1662.467750  	88.156916 
1663.904628  	88.324575 
1665.341506  	88.501863 
1666.778384  	88.626215 
1668.215262  	88.726274 
1669.652140  	88.879055 
1671.089018  	88.992049 
1672.525896  	89.116126 
1673.962774  	89.303587 
1675.399651  	89.434506 
1676.836529  	89.474618 
1678.273407  	89.562283 
1679.710285  	89.651176 
1681.147163  	89.736476 
1682.584041  	89.849784 
1684.020919  	90.018682 
1685.457797  	90.142869 
1686.894675  	90.112094 
1688.331553  	90.152699 
1689.768431  	90.287530 
1691.205309  	90.368712 
1692.642186  	90.387191 
1694.079064  	90.404952 
1695.515942  	90.444044 
1696.952820  	90.483585 
1698.389698  	90.525752 
1699.826576  	90.622376 
1701.263454  	90.742549 
1702.700332  	90.672601 
1704.137210  	90.596242 
1705.574088  	90.562535 
1707.010966  	90.638917 
1708.447844  	90.711546 
1709.884721  	90.669173 
1711.321599  	90.655272 
1712.758477  	90.749598 
1714.195355  	90.757427 
1715.632233  	90.653071 
1717.069111  	90.702668 
1718.505989  	90.859126 
1719.942867  	90.855738 
1721.379745  	90.858608 
1722.816623  	90.926036 
1724.253501  	90.962961 
1725.690379  	90.958777 
1727.127256  	90.975070 
1728.564134  	91.000278 
1730.001012  	91.007915 
1731.437890  	91.037888 
1732.874768  	91.089107 
1734.311646  	91.168714 
1735.748524  	91.293459 
1737.185402  	91.297224 
1738.622280  	91.333076 
1740.059158  	91.403768 
1741.496036  	91.450710 
1742.932914  	91.468452 
1744.369791  	91.488077 
1745.806669  	91.545588 
1747.243547  	91.615900 
1748.680425  	91.594225 
1750.117303  	91.603498 
1751.554181  	91.735307 
1752.991059  	91.836713 
1754.427937  	91.851830 
1755.864815  	91.899047 
1757.301693  	91.982247 
1758.738571  	92.005839 
1760.175449  	92.009893 
1761.612326  	92.056425 
1763.049204  	92.118861 
1764.486082  	92.106350 
1765.922960  	92.092412 
1767.359838  	92.104488 
1768.796716  	92.169955 
1770.233594  	92.223272 
1771.670472  	92.199974 
1773.107350  	92.193166 
1774.544228  	92.238273 
1775.981106  	92.258466 
1777.417984  	92.229767 
1778.854861  	92.186392 
1780.291739  	92.218846 
1781.728617  	92.270039 
1783.165495  	92.216038 
1784.602373  	92.187878 
1786.039251  	92.254784 
1787.476129  	92.264971 
1788.913007  	92.240521 
1790.349885  	92.274955 
1791.786763  	92.315718 
1793.223641  	92.402189 
1794.660519  	92.364882 
1796.097396  	92.266585 
1797.534274  	92.268389 
1798.971152  	92.288804 
1800.408030  	92.262252 
1801.844908  	92.187725 
1803.281786  	92.143923 
1804.718664  	92.220212 
1806.155542  	92.302227 
1807.592420  	92.313554 
1809.029298  	92.319964 
1810.466176  	92.316699 
1811.903054  	92.344168 
1813.339931  	92.413706 
1814.776809  	92.456176 
1816.213687  	92.449907 
1817.650565  	92.457846 
1819.087443  	92.477029 
1820.524321  	92.493333 
1821.961199  	92.500631 
1823.398077  	92.538824 
1824.834955  	92.516863 
1826.271833  	92.462839 
1827.708711  	92.524497 
1829.145589  	92.603796 
1830.582466  	92.588653 
1832.019344  	92.620147 
1833.456222  	92.662770 
1834.893100  	92.658253 
1836.329978  	92.656282 
1837.766856  	92.652660 
1839.203734  	92.641741 
1840.640612  	92.570499 
1842.077490  	92.551587 
1843.514368  	92.643008 
1844.951246  	92.680536 
1846.388124  	92.624883 
1847.825001  	92.647694 
1849.261879  	92.678893 
1850.698757  	92.693594 
1852.135635  	92.689329 
1853.572513  	92.648015 
1855.009391  	92.685567 
1856.446269  	92.753446 
1857.883147  	92.736479 
1859.320025  	92.663637 
1860.756903  	92.636586 
1862.193781  	92.688261 
1863.630659  	92.704461 
1865.067536  	92.624881 
1866.504414  	92.619431 
1867.941292  	92.706357 
1869.378170  	92.726996 
1870.815048  	92.683995 
1872.251926  	92.636415 
1873.688804  	92.603023 
1875.125682  	92.587331 
1876.562560  	92.553519 
1877.999438  	92.559984 
1879.436316  	92.607270 
1880.873194  	92.622162 
1882.310072  	92.586925 
1883.746949  	92.568062 
1885.183827  	92.605123 
1886.620705  	92.545685 
1888.057583  	92.373868 
1889.494461  	92.396994 
1890.931339  	92.603314 
1892.368217  	92.610368 
1893.805095  	92.559670 
1895.241973  	92.632255 
1896.678851  	92.753814 
1898.115729  	92.739954 
1899.552607  	92.553775 
1900.989484  	92.467899 
1902.426362  	92.529748 
1903.863240  	92.469399 
1905.300118  	92.280714 
1906.736996  	92.266270 
1908.173874  	92.432276 
1909.610752  	92.475530 
1911.047630  	92.423270 
1912.484508  	92.525202 
1913.921386  	92.601538 
1915.358264  	92.497064 
1916.795142  	92.473167 
1918.232019  	92.529998 
1919.668897  	92.484949 
1921.105775  	92.381705 
1922.542653  	92.397814 
1923.979531  	92.473733 
1925.416409  	92.439575 
1926.853287  	92.392721 
1928.290165  	92.508800 
1929.727043  	92.575394 
1931.163921  	92.620078 
1932.600799  	92.553864 
1934.037677  	92.255629 
1935.474554  	92.139391 
1936.911432  	92.281379 
1938.348310  	92.350999 
1939.785188  	92.400954 
1941.222066  	92.433498 
1942.658944  	92.444972 
1944.095822  	92.553828 
1945.532700  	92.538544 
1946.969578  	92.522085 
1948.406456  	92.634462 
1949.843334  	92.588943 
1951.280212  	92.349421 
1952.717089  	92.398011 
1954.153967  	92.500878 
1955.590845  	92.383542 
1957.027723  	92.574847 
1958.464601  	92.955558 
1959.901479  	92.753219 
1961.338357  	92.521860 
1962.775235  	92.891349 
1964.212113  	93.065667 
1965.648991  	92.822435 
1967.085869  	92.655315 
1968.522747  	92.646496 
1969.959624  	92.701726 
1971.396502  	92.704553 
1972.833380  	92.729878 
1974.270258  	92.910086 
1975.707136  	92.877778 
1977.144014  	92.596298 
1978.580892  	92.390018 
1980.017770  	92.320982 
1981.454648  	92.359097 
1982.891526  	92.399022 
1984.328404  	92.374671 
1985.765282  	92.360070 
1987.202159  	92.319218 
1988.639037  	92.279653 
1990.075915  	92.341424 
1991.512793  	92.356870 
1992.949671  	92.275519 
1994.386549  	92.163733 
1995.823427  	92.098140 
1997.260305  	92.367515 
1998.697183  	92.676337 
2000.134061  	92.493853 
2001.570939  	92.383300 
2003.007817  	92.646518 
2004.444694  	92.649359 
2005.881572  	92.478279 
2007.318450  	92.545855 
2008.755328  	92.609218 
2010.192206  	92.652180 
2011.629084  	92.651525 
2013.065962  	92.384217 
2014.502840  	92.344837 
2015.939718  	92.541668 
2017.376596  	92.358817 
2018.813474  	92.315879 
2020.250352  	92.642072 
2021.687229  	92.677386 
2023.124107  	92.553385 
2024.560985  	92.451719 
2025.997863  	92.296490 
2027.434741  	92.309600 
2028.871619  	92.152635 
2030.308497  	91.966876 
2031.745375  	92.226788 
2033.182253  	92.467769 
2034.619131  	92.399499 
2036.056009  	92.229482 
2037.492887  	92.140650 
2038.929764  	92.421035 
2040.366642  	92.538540 
2041.803520  	92.311265 
2043.240398  	92.422446 
2044.677276  	92.561757 
2046.114154  	92.560194 
2047.551032  	92.631929 
2048.987910  	92.220122 
2050.424788  	91.799296 
2051.861666  	91.940379 
2053.298544  	91.986080 
2054.735422  	91.931790 
2056.172299  	92.135748 
2057.609177  	92.181092 
2059.046055  	91.985292 
2060.482933  	91.858756 
2061.919811  	91.888654 
2063.356689  	92.030743 
2064.793567  	92.108575 
2066.230445  	92.175493 
2067.667323  	92.336254 
2069.104201  	92.241965 
2070.541079  	91.967642 
2071.977957  	92.009330 
2073.414834  	92.159754 
2074.851712  	91.962809 
2076.288590  	91.689678 
2077.725468  	91.765121 
2079.162346  	92.005281 
2080.599224  	92.033122 
2082.036102  	91.906406 
2083.472980  	91.927097 
2084.909858  	92.100897 
2086.346736  	92.100394 
2087.783614  	91.876792 
2089.220492  	91.830919 
2090.657369  	91.932186 
2092.094247  	91.771888 
2093.531125  	91.599710 
2094.968003  	91.799687 
2096.404881  	92.018277 
2097.841759  	91.996007 
2099.278637  	91.939025 
2100.715515  	91.867230 
2102.152393  	91.768871 
2103.589271  	91.769745 
2105.026149  	91.777804 
2106.463027  	91.625796 
2107.899904  	91.457803 
2109.336782  	91.568516 
2110.773660  	91.822368 
2112.210538  	91.807964 
2113.647416  	91.668569 
2115.084294  	91.665991 
2116.521172  	91.650450 
2117.958050  	91.622020 
2119.394928  	91.630494 
2120.831806  	91.639667 
2122.268684  	91.784269 
2123.705562  	91.776092 
2125.142440  	91.408211 
2126.579317  	91.352844 
2128.016195  	91.718363 
2129.453073  	91.891615 
2130.889951  	91.908175 
2132.326829  	92.034015 
2133.763707  	92.198223 
2135.200585  	92.214697 
2136.637463  	91.938735 
2138.074341  	91.859040 
2139.511219  	92.244226 
2140.948097  	92.507900 
2142.384975  	92.480656 
2143.821852  	92.312900 
2145.258730  	92.087788 
2146.695608  	92.071970 
2148.132486  	91.797039 
2149.569364  	91.342932 
2151.006242  	91.473346 
2152.443120  	91.485680 
2153.879998  	91.196817 
2155.316876  	91.651708 
2156.753754  	92.290859 
2158.190632  	92.015060 
2159.627510  	91.324132 
2161.064387  	91.274230 
2162.501265  	92.117794 
2163.938143  	92.701372 
2165.375021  	92.103802 
2166.811899  	91.394517 
2168.248777  	91.390725 
2169.685655  	91.724466 
2171.122533  	91.864356 
2172.559411  	91.840244 
2173.996289  	91.996738 
2175.433167  	92.081821 
2176.870045  	91.890937 
2178.306922  	92.014592 
2179.743800  	92.429985 
2181.180678  	92.510034 
2182.617556  	92.236077 
2184.054434  	92.087316 
2185.491312  	92.325767 
2186.928190  	92.437411 
2188.365068  	92.083571 
2189.801946  	91.849487 
2191.238824  	91.857683 
2192.675702  	91.687800 
2194.112580  	91.600721 
2195.549457  	91.939480 
2196.986335  	92.258386 
2198.423213  	92.236144 
2199.860091  	92.046062 
2201.296969  	91.795043 
2202.733847  	91.752948 
2204.170725  	92.168183 
2205.607603  	92.428564 
2207.044481  	92.189860 
2208.481359  	92.052021 
2209.918237  	92.046617 
2211.355115  	91.798141 
2212.791992  	91.557619 
2214.228870  	91.646829 
2215.665748  	91.925634 
2217.102626  	92.012895 
2218.539504  	91.941677 
2219.976382  	92.001673 
2221.413260  	91.978579 
2222.850138  	91.821400 
2224.287016  	91.906916 
2225.723894  	92.126813 
2227.160772  	92.102598 
2228.597650  	91.751563 
2230.034527  	91.430693 
2231.471405  	91.539700 
2232.908283  	91.677549 
2234.345161  	91.559042 
2235.782039  	91.592992 
2237.218917  	91.765809 
2238.655795  	91.848172 
2240.092673  	91.941055 
2241.529551  	91.939454 
2242.966429  	91.728221 
2244.403307  	91.568051 
2245.840185  	91.739524 
2247.277062  	92.025097 
2248.713940  	92.016001 
2250.150818  	91.879490 
2251.587696  	91.883075 
2253.024574  	91.877870 
2254.461452  	91.832859 
2255.898330  	91.779479 
2257.335208  	91.724876 
2258.772086  	91.701638 
2260.208964  	91.679403 
2261.645842  	91.659096 
2263.082720  	91.678897 
2264.519597  	91.667060 
2265.956475  	91.696433 
2267.393353  	91.762777 
2268.830231  	91.764399 
2270.267109  	91.755773 
2271.703987  	91.699296 
2273.140865  	91.594766 
2274.577743  	91.608235 
2276.014621  	91.615777 
2277.451499  	91.561925 
2278.888377  	91.588212 
2280.325255  	91.564654 
2281.762132  	91.489350 
2283.199010  	91.473507 
2284.635888  	91.502250 
2286.072766  	91.524870 
2287.509644  	91.475699 
2288.946522  	91.379773 
2290.383400  	91.369970 
2291.820278  	91.370825 
2293.257156  	91.350355 
2294.694034  	91.336300 
2296.130912  	91.290571 
2297.567790  	91.226392 
2299.004667  	91.237027 
2300.441545  	91.241459 
2301.878423  	91.214383 
2303.315301  	91.135073 
2304.752179  	91.069653 
2306.189057  	91.070924 
2307.625935  	91.014672 
2309.062813  	90.923865 
2310.499691  	90.902723 
2311.936569  	90.932393 
2313.373447  	90.984731 
2314.810325  	90.993339 
2316.247202  	90.935160 
2317.684080  	90.840812 
2319.120958  	90.722380 
2320.557836  	90.676553 
2321.994714  	90.674048 
2323.431592  	90.612455 
2324.868470  	90.563998 
2326.305348  	90.534964 
2327.742226  	90.535303 
2329.179104  	90.612632 
2330.615982  	90.619159 
2332.052860  	90.545841 
2333.489737  	90.570371 
2334.926615  	90.623594 
2336.363493  	90.585550 
2337.800371  	90.527389 
2339.237249  	90.595086 
2340.674127  	90.746491 
2342.111005  	90.748703 
2343.547883  	90.624412 
2344.984761  	90.532892 
2346.421639  	90.490780 
2347.858517  	90.542270 
2349.295395  	90.607828 
2350.732273  	90.586871 
2352.169150  	90.540695 
2353.606028  	90.610544 
2355.042906  	90.749015 
2356.479784  	90.846395 
2357.916662  	90.900827 
2359.353540  	90.918436 
2360.790418  	90.837167 
2362.227296  	90.804425 
2363.664174  	90.882147 
2365.101052  	90.874119 
2366.537930  	90.843763 
2367.974808  	90.892403 
2369.411685  	90.864611 
2370.848563  	90.845084 
2372.285441  	90.953595 
2373.722319  	91.014350 
2375.159197  	91.025637 
2376.596075  	91.048760 
2378.032953  	91.047782 
2379.469831  	91.052034 
2380.906709  	91.097952 
2382.343587  	91.181648 
2383.780465  	91.261828 
2385.217343  	91.297932 
2386.654220  	91.337116 
2388.091098  	91.346825 
2389.527976  	91.271942 
2390.964854  	91.236950 
2392.401732  	91.306439 
2393.838610  	91.373763 
2395.275488  	91.372092 
2396.712366  	91.300922 
2398.149244  	91.214810 
2399.586122  	91.188334 
2401.023000  	91.228737 
2402.459878  	91.243086 
2403.896755  	91.180018 
2405.333633  	91.177169 
2406.770511  	91.236920 
2408.207389  	91.169469 
2409.644267  	91.070596 
2411.081145  	91.088269 
2412.518023  	91.125767 
2413.954901  	91.165715 
2415.391779  	91.204132 
2416.828657  	91.176359 
2418.265535  	91.135275 
2419.702413  	91.113387 
2421.139290  	91.126073 
2422.576168  	91.180146 
2424.013046  	91.192165 
2425.449924  	91.186518 
2426.886802  	91.219444 
2428.323680  	91.240122 
2429.760558  	91.222241 
2431.197436  	91.149110 
2432.634314  	91.095583 
2434.071192  	91.151520 
2435.508070  	91.190853 
2436.944948  	91.160845 
2438.381825  	91.141976 
2439.818703  	91.090217 
2441.255581  	91.043763 
2442.692459  	91.089786 
2444.129337  	91.103191 
2445.566215  	91.030392 
2447.003093  	91.020681 
2448.439971  	91.071484 
2449.876849  	91.054603 
2451.313727  	91.042542 
2452.750605  	91.097196 
2454.187483  	91.106520 
2455.624360  	91.131498 
2457.061238  	91.189646 
2458.498116  	91.120914 
2459.934994  	91.109305 
2461.371872  	91.231079 
2462.808750  	91.165060 
2464.245628  	91.040670 
2465.682506  	91.082000 
2467.119384  	91.052919 
2468.556262  	91.000575 
2469.993140  	91.114987 
2471.430018  	91.189453 
2472.866895  	91.120331 
2474.303773  	91.042208 
2475.740651  	91.035672 
2477.177529  	91.092354 
2478.614407  	91.110458 
2480.051285  	91.083730 
2481.488163  	91.094387 
2482.925041  	91.106536 
2484.361919  	91.083529 
2485.798797  	91.022067 
2487.235675  	90.927538 
2488.672553  	90.888379 
2490.109430  	90.905565 
2491.546308  	90.920588 
2492.983186  	90.970400 
2494.420064  	91.010863 
2495.856942  	90.989958 
2497.293820  	90.976378 
2498.730698  	90.939947 
2500.167576  	90.866979 
2501.604454  	90.892648 
2503.041332  	90.972239 
2504.478210  	90.982014 
2505.915088  	90.992711 
2507.351965  	90.998668 
2508.788843  	90.955405 
2510.225721  	90.996168 
2511.662599  	91.080973 
2513.099477  	91.025481 
2514.536355  	90.914630 
2515.973233  	90.908295 
2517.410111  	90.959544 
2518.846989  	90.935333 
2520.283867  	90.874234 
2521.720745  	90.938198 
2523.157623  	90.998865 
2524.594500  	90.888131 
2526.031378  	90.825022 
2527.468256  	90.847758 
2528.905134  	90.792396 
2530.342012  	90.834620 
2531.778890  	90.997048 
2533.215768  	91.030617 
2534.652646  	91.002609 
2536.089524  	91.024210 
2537.526402  	91.005931 
2538.963280  	90.953293 
2540.400158  	90.912943 
2541.837035  	90.861442 
2543.273913  	90.793305 
2544.710791  	90.744790 
2546.147669  	90.755924 
2547.584547  	90.819455 
2549.021425  	90.892567 
2550.458303  	90.888677 
2551.895181  	90.791571 
2553.332059  	90.758556 
2554.768937  	90.821833 
2556.205815  	90.852238 
2557.642693  	90.846538 
2559.079570  	90.817810 
2560.516448  	90.779827 
2561.953326  	90.812464 
2563.390204  	90.853651 
2564.827082  	90.819957 
2566.263960  	90.771512 
2567.700838  	90.765175 
2569.137716  	90.823079 
2570.574594  	90.884834 
2572.011472  	90.858437 
2573.448350  	90.827347 
2574.885228  	90.861879 
2576.322105  	90.833768 
2577.758983  	90.709337 
2579.195861  	90.657870 
2580.632739  	90.729660 
2582.069617  	90.792728 
2583.506495  	90.802516 
2584.943373  	90.803911 
2586.380251  	90.813444 
2587.817129  	90.835228 
2589.254007  	90.804528 
2590.690885  	90.732059 
2592.127763  	90.742170 
2593.564641  	90.774112 
2595.001518  	90.751539 
2596.438396  	90.731029 
2597.875274  	90.679078 
2599.312152  	90.654557 
2600.749030  	90.720790 
2602.185908  	90.715416 
2603.622786  	90.654108 
2605.059664  	90.648485 
2606.496542  	90.638955 
2607.933420  	90.660346 
2609.370298  	90.714397 
2610.807176  	90.722008 
2612.244053  	90.715882 
2613.680931  	90.653572 
2615.117809  	90.557525 
2616.554687  	90.572823 
2617.991565  	90.627279 
2619.428443  	90.636211 
2620.865321  	90.632423 
2622.302199  	90.601443 
2623.739077  	90.593661 
2625.175955  	90.627003 
2626.612833  	90.622793 
2628.049711  	90.589363 
2629.486588  	90.572925 
2630.923466  	90.591655 
2632.360344  	90.599400 
2633.797222  	90.561130 
2635.234100  	90.577727 
2636.670978  	90.608427 
2638.107856  	90.527425 
2639.544734  	90.466782 
2640.981612  	90.511209 
2642.418490  	90.566682 
2643.855368  	90.597659 
2645.292246  	90.561659 
2646.729123  	90.482349 
2648.166001  	90.464598 
2649.602879  	90.484863 
2651.039757  	90.497723 
2652.476635  	90.493096 
2653.913513  	90.452314 
2655.350391  	90.428707 
2656.787269  	90.443008 
2658.224147  	90.455273 
2659.661025  	90.446351 
2661.097903  	90.392519 
2662.534781  	90.347124 
2663.971658  	90.357447 
2665.408536  	90.347857 
2666.845414  	90.330335 
2668.282292  	90.358040 
2669.719170  	90.371720 
2671.156048  	90.359577 
2672.592926  	90.335537 
2674.029804  	90.302244 
2675.466682  	90.324399 
2676.903560  	90.363949 
2678.340438  	90.341827 
2679.777316  	90.313274 
2681.214193  	90.291833 
2682.651071  	90.260227 
2684.087949  	90.258139 
2685.524827  	90.242516 
2686.961705  	90.205356 
2688.398583  	90.228732 
2689.835461  	90.262586 
2691.272339  	90.236551 
2692.709217  	90.196589 
2694.146095  	90.170011 
2695.582973  	90.175182 
2697.019851  	90.206892 
2698.456728  	90.192855 
2699.893606  	90.147140 
2701.330484  	90.131555 
2702.767362  	90.123558 
2704.204240  	90.106143 
2705.641118  	90.090393 
2707.077996  	90.088853 
2708.514874  	90.130407 
2709.951752  	90.183812 
2711.388630  	90.176283 
2712.825508  	90.103342 
2714.262386  	90.043697 
2715.699263  	90.069189 
2717.136141  	90.122714 
2718.573019  	90.109134 
2720.009897  	90.059047 
2721.446775  	90.018938 
2722.883653  	89.976463 
2724.320531  	89.946405 
2725.757409  	89.940468 
2727.194287  	89.937862 
2728.631165  	89.937017 
2730.068043  	89.958631 
2731.504921  	89.986261 
2732.941798  	89.965272 
2734.378676  	89.920054 
2735.815554  	89.926527 
2737.252432  	89.957292 
2738.689310  	89.940414 
2740.126188  	89.895133 
2741.563066  	89.901075 
2742.999944  	89.949986 
2744.436822  	89.944436 
2745.873700  	89.905719 
2747.310578  	89.907364 
2748.747456  	89.907198 
2750.184333  	89.895704 
2751.621211  	89.885640 
2753.058089  	89.853886 
2754.494967  	89.855748 
2755.931845  	89.882559 
2757.368723  	89.871138 
2758.805601  	89.857529 
2760.242479  	89.825601 
2761.679357  	89.783245 
2763.116235  	89.800516 
2764.553113  	89.801087 
2765.989991  	89.771235 
2767.426868  	89.782744 
2768.863746  	89.772532 
2770.300624  	89.756626 
2771.737502  	89.786622 
2773.174380  	89.780559 
2774.611258  	89.750518 
2776.048136  	89.753034 
2777.485014  	89.754118 
2778.921892  	89.748138 
2780.358770  	89.735707 
2781.795648  	89.710633 
2783.232526  	89.690872 
2784.669403  	89.684871 
2786.106281  	89.694621 
2787.543159  	89.684428 
2788.980037  	89.649990 
2790.416915  	89.655223 
2791.853793  	89.683464 
2793.290671  	89.674853 
2794.727549  	89.631152 
2796.164427  	89.588206 
2797.601305  	89.586575 
2799.038183  	89.604402 
2800.475061  	89.613390 
2801.911938  	89.638907 
2803.348816  	89.655487 
2804.785694  	89.643039 
2806.222572  	89.625758 
2807.659450  	89.596307 
2809.096328  	89.584292 
2810.533206  	89.604363 
2811.970084  	89.600815 
2813.406962  	89.578555 
2814.843840  	89.569109 
2816.280718  	89.558501 
2817.717596  	89.532210 
2819.154474  	89.502425 
2820.591351  	89.501798 
2822.028229  	89.501976 
2823.465107  	89.473984 
2824.901985  	89.473515 
2826.338863  	89.492132 
2827.775741  	89.503477 
2829.212619  	89.529896 
2830.649497  	89.505171 
2832.086375  	89.441281 
2833.523253  	89.452835 
2834.960131  	89.468350 
2836.397009  	89.417288 
2837.833886  	89.400301 
2839.270764  	89.425245 
2840.707642  	89.441557 
2842.144520  	89.480692 
2843.581398  	89.491466 
2845.018276  	89.405389 
2846.455154  	89.336705 
2847.892032  	89.365105 
2849.328910  	89.397216 
2850.765788  	89.405632 
2852.202666  	89.414910 
2853.639544  	89.390433 
2855.076421  	89.360398 
2856.513299  	89.359325 
2857.950177  	89.364453 
2859.387055  	89.369120 
2860.823933  	89.336560 
2862.260811  	89.281715 
2863.697689  	89.283482 
2865.134567  	89.303539 
2866.571445  	89.295929 
2868.008323  	89.292018 
2869.445201  	89.299440 
2870.882079  	89.318390 
2872.318956  	89.290072 
2873.755834  	89.181686 
2875.192712  	89.132901 
2876.629590  	89.210027 
2878.066468  	89.312335 
2879.503346  	89.369388 
2880.940224  	89.354977 
2882.377102  	89.266472 
2883.813980  	89.170887 
2885.250858  	89.169680 
2886.687736  	89.249660 
2888.124614  	89.263943 
2889.561491  	89.222835 
2890.998369  	89.242745 
2892.435247  	89.259109 
2893.872125  	89.229593 
2895.309003  	89.204944 
2896.745881  	89.158971 
2898.182759  	89.132420 
2899.619637  	89.154112 
2901.056515  	89.120316 
2902.493393  	89.062482 
2903.930271  	89.089115 
2905.367149  	89.146930 
2906.804026  	89.162439 
2908.240904  	89.151902 
2909.677782  	89.125387 
2911.114660  	89.074015 
2912.551538  	89.032682 
2913.988416  	89.042461 
2915.425294  	89.063605 
2916.862172  	89.039542 
2918.299050  	88.987839 
2919.735928  	88.952167 
2921.172806  	88.935788 
2922.609684  	88.936951 
2924.046561  	88.975538 
2925.483439  	88.994228 
2926.920317  	88.932506 
2928.357195  	88.880463 
2929.794073  	88.880928 
2931.230951  	88.874798 
2932.667829  	88.872196 
2934.104707  	88.853177 
2935.541585  	88.827097 
2936.978463  	88.881406 
2938.415341  	88.921294 
2939.852219  	88.852835 
2941.289096  	88.796911 
2942.725974  	88.796231 
2944.162852  	88.797077 
2945.599730  	88.804444 
2947.036608  	88.800074 
2948.473486  	88.756687 
2949.910364  	88.713447 
2951.347242  	88.702941 
2952.784120  	88.677454 
2954.220998  	88.626520 
2955.657876  	88.616100 
2957.094754  	88.612424 
2958.531631  	88.599348 
2959.968509  	88.642122 
2961.405387  	88.650452 
2962.842265  	88.590906 
2964.279143  	88.565189 
2965.716021  	88.517329 
2967.152899  	88.464861 
2968.589777  	88.510553 
2970.026655  	88.543190 
2971.463533  	88.520753 
2972.900411  	88.518520 
2974.337289  	88.492736 
2975.774166  	88.444585 
2977.211044  	88.422503 
2978.647922  	88.413321 
2980.084800  	88.399131 
2981.521678  	88.360198 
2982.958556  	88.340381 
2984.395434  	88.366988 
2985.832312  	88.354606 
2987.269190  	88.303335 
2988.706068  	88.277406 
2990.142946  	88.260095 
2991.579824  	88.228282 
2993.016701  	88.173559 
2994.453579  	88.139659 
2995.890457  	88.169799 
2997.327335  	88.155993 
2998.764213  	88.062246 
3000.201091  	88.041992 
3001.637969  	88.093096 
3003.074847  	88.067233 
3004.511725  	88.008037 
3005.948603  	88.021570 
3007.385481  	88.037074 
3008.822359  	88.004599 
3010.259236  	87.990904 
3011.696114  	88.008407 
3013.132992  	88.009709 
3014.569870  	87.942679 
3016.006748  	87.826626 
3017.443626  	87.789968 
3018.880504  	87.831055 
3020.317382  	87.837342 
3021.754260  	87.839792 
3023.191138  	87.844675 
3024.628016  	87.793927 
3026.064894  	87.758592 
3027.501771  	87.751744 
3028.938649  	87.687343 
3030.375527  	87.596689 
3031.812405  	87.534729 
3033.249283  	87.489834 
3034.686161  	87.470504 
3036.123039  	87.487889 
3037.559917  	87.498301 
3038.996795  	87.488157 
3040.433673  	87.526686 
3041.870551  	87.580123 
3043.307429  	87.521659 
3044.744306  	87.424326 
3046.181184  	87.417309 
3047.618062  	87.416636 
3049.054940  	87.366682 
3050.491818  	87.348937 
3051.928696  	87.368910 
3053.365574  	87.373443 
3054.802452  	87.350313 
3056.239330  	87.312951 
3057.676208  	87.294741 
3059.113086  	87.292130 
3060.549964  	87.260659 
3061.986842  	87.222689 
3063.423719  	87.229111 
3064.860597  	87.248056 
3066.297475  	87.247874 
3067.734353  	87.262627 
3069.171231  	87.260439 
3070.608109  	87.164583 
3072.044987  	87.052763 
3073.481865  	87.050096 
3074.918743  	87.090510 
3076.355621  	87.079058 
3077.792499  	87.056546 
3079.229377  	87.021625 
3080.666254  	86.962050 
3082.103132  	86.962372 
3083.540010  	87.012282 
3084.976888  	87.030498 
3086.413766  	87.017789 
3087.850644  	86.975654 
3089.287522  	86.920930 
3090.724400  	86.903465 
3092.161278  	86.919381 
3093.598156  	86.917603 
3095.035034  	86.833015 
3096.471912  	86.716940 
3097.908789  	86.669408 
3099.345667  	86.625479 
3100.782545  	86.617921 
3102.219423  	86.724605 
3103.656301  	86.731994 
3105.093179  	86.615234 
3106.530057  	86.592193 
3107.966935  	86.591429 
3109.403813  	86.521009 
3110.840691  	86.444733 
3112.277569  	86.371951 
3113.714447  	86.371382 
3115.151324  	86.428938 
3116.588202  	86.440147 
3118.025080  	86.466827 
3119.461958  	86.495125 
3120.898836  	86.443739 
3122.335714  	86.416797 
3123.772592  	86.444486 
3125.209470  	86.441077 
3126.646348  	86.420106 
3128.083226  	86.409050 
3129.520104  	86.416536 
3130.956982  	86.439047 
3132.393859  	86.409710 
3133.830737  	86.326651 
3135.267615  	86.297752 
3136.704493  	86.333691 
3138.141371  	86.345407 
3139.578249  	86.337523 
3141.015127  	86.333460 
3142.452005  	86.297209 
3143.888883  	86.266485 
3145.325761  	86.255058 
3146.762639  	86.220971 
3148.199517  	86.235794 
3149.636394  	86.274218 
3151.073272  	86.201094 
3152.510150  	86.131176 
3153.947028  	86.172964 
3155.383906  	86.157323 
3156.820784  	86.067823 
3158.257662  	86.066538 
3159.694540  	86.092721 
3161.131418  	86.060212 
3162.568296  	86.035509 
3164.005174  	85.988336 
3165.442052  	85.939633 
3166.878929  	85.978539 
3168.315807  	85.988583 
3169.752685  	85.996797 
3171.189563  	86.102140 
3172.626441  	86.061675 
3174.063319  	85.919541 
3175.500197  	85.966765 
3176.937075  	86.019918 
3178.373953  	85.948926 
3179.810831  	85.905636 
3181.247709  	85.888156 
3182.684587  	85.912753 
3184.121464  	85.913676 
3185.558342  	85.806363 
3186.995220  	85.803741 
3188.432098  	85.888358 
3189.868976  	85.843483 
3191.305854  	85.788652 
3192.742732  	85.837634 
3194.179610  	85.867845 
3195.616488  	85.742152 
3197.053366  	85.528977 
3198.490244  	85.512044 
3199.927122  	85.680093 
3201.363999  	85.764578 
3202.800877  	85.777140 
3204.237755  	85.802132 
3205.674633  	85.778191 
3207.111511  	85.709683 
3208.548389  	85.710856 
3209.985267  	85.789740 
3211.422145  	85.720196 
3212.859023  	85.489576 
3214.295901  	85.445379 
3215.732779  	85.618949 
3217.169657  	85.643181 
3218.606534  	85.443877 
3220.043412  	85.337007 
3221.480290  	85.391493 
3222.917168  	85.345750 
3224.354046  	85.315507 
3225.790924  	85.446820 
3227.227802  	85.455444 
3228.664680  	85.453790 
3230.101558  	85.615495 
3231.538436  	85.542858 
3232.975314  	85.335031 
3234.412192  	85.434703 
3235.849069  	85.620198 
3237.285947  	85.586936 
3238.722825  	85.399156 
3240.159703  	85.275273 
3241.596581  	85.371090 
3243.033459  	85.477211 
3244.470337  	85.407927 
3245.907215  	85.358333 
3247.344093  	85.448777 
3248.780971  	85.483880 
3250.217849  	85.347729 
3251.654727  	85.285255 
3253.091604  	85.386800 
3254.528482  	85.401278 
3255.965360  	85.400194 
3257.402238  	85.473756 
3258.839116  	85.411916 
3260.275994  	85.348953 
3261.712872  	85.445924 
3263.149750  	85.517897 
3264.586628  	85.506846 
3266.023506  	85.473952 
3267.460384  	85.514527 
3268.897262  	85.609762 
3270.334139  	85.557315 
3271.771017  	85.466938 
3273.207895  	85.460488 
3274.644773  	85.382048 
3276.081651  	85.340869 
3277.518529  	85.381396 
3278.955407  	85.375442 
3280.392285  	85.459208 
3281.829163  	85.575806 
3283.266041  	85.594198 
3284.702919  	85.656610 
3286.139797  	85.629120 
3287.576674  	85.443510 
3289.013552  	85.404600 
3290.450430  	85.448499 
3291.887308  	85.451079 
3293.324186  	85.609304 
3294.761064  	85.741446 
3296.197942  	85.594234 
3297.634820  	85.429160 
3299.071698  	85.399886 
3300.508576  	85.427660 
3301.945454  	85.531740 
3303.382332  	85.546678 
3304.819210  	85.391048 
3306.256087  	85.370564 
3307.692965  	85.506422 
3309.129843  	85.534421 
3310.566721  	85.477737 
3312.003599  	85.459545 
3313.440477  	85.520128 
3314.877355  	85.633882 
3316.314233  	85.653768 
3317.751111  	85.610497 
3319.187989  	85.686069 
3320.624867  	85.827371 
3322.061745  	85.866626 
3323.498622  	85.771503 
3324.935500  	85.659401 
3326.372378  	85.660226 
3327.809256  	85.653547 
3329.246134  	85.520931 
3330.683012  	85.466310 
3332.119890  	85.524811 
3333.556768  	85.512183 
3334.993646  	85.553340 
3336.430524  	85.689236 
3337.867402  	85.661220 
3339.304280  	85.561980 
3340.741157  	85.551099 
3342.178035  	85.563127 
3343.614913  	85.690085 
3345.051791  	85.763498 
3346.488669  	85.564294 
3347.925547  	85.483982 
3349.362425  	85.580895 
3350.799303  	85.511962 
3352.236181  	85.437706 
3353.673059  	85.419298 
3355.109937  	85.373460 
3356.546815  	85.507598 
3357.983692  	85.663343 
3359.420570  	85.640722 
3360.857448  	85.639564 
3362.294326  	85.639331 
3363.731204  	85.584828 
3365.168082  	85.619757 
3366.604960  	85.699240 
3368.041838  	85.693329 
3369.478716  	85.624650 
3370.915594  	85.629208 
3372.352472  	85.701892 
3373.789350  	85.696303 
3375.226227  	85.681406 
3376.663105  	85.769695 
3378.099983  	85.943897 
3379.536861  	86.088630 
3380.973739  	85.989888 
3382.410617  	85.844337 
3383.847495  	85.957687 
3385.284373  	86.065126 
3386.721251  	86.038935 
3388.158129  	86.024007 
3389.595007  	85.920308 
3391.031885  	85.803332 
3392.468762  	85.841046 
3393.905640  	85.951011 
3395.342518  	86.021962 
3396.779396  	85.980662 
3398.216274  	85.894104 
3399.653152  	85.882519 
3401.090030  	85.977977 
3402.526908  	86.151009 
3403.963786  	86.094433 
3405.400664  	85.862568 
3406.837542  	85.943228 
3408.274420  	86.118093 
3409.711297  	86.094396 
3411.148175  	86.117540 
3412.585053  	86.074069 
3414.021931  	85.958412 
3415.458809  	86.080396 
3416.895687  	86.202844 
3418.332565  	86.149673 
3419.769443  	86.175607 
3421.206321  	86.264760 
3422.643199  	86.250840 
3424.080077  	86.219975 
3425.516955  	86.231065 
3426.953832  	86.127819 
3428.390710  	86.022322 
3429.827588  	86.191955 
3431.264466  	86.349877 
3432.701344  	86.335779 
3434.138222  	86.455397 
3435.575100  	86.552446 
3437.011978  	86.518550 
3438.448856  	86.558959 
3439.885734  	86.507749 
3441.322612  	86.451476 
3442.759490  	86.618553 
3444.196367  	86.688344 
3445.633245  	86.599123 
3447.070123  	86.563991 
3448.507001  	86.588177 
3449.943879  	86.779151 
3451.380757  	86.983887 
3452.817635  	86.880971 
3454.254513  	86.755948 
3455.691391  	86.942275 
3457.128269  	87.081539 
3458.565147  	86.924200 
3460.002025  	86.886095 
3461.438902  	87.101091 
3462.875780  	87.123245 
3464.312658  	86.952682 
3465.749536  	86.943799 
3467.186414  	87.052238 
3468.623292  	87.138624 
3470.060170  	87.137458 
3471.497048  	87.074345 
3472.933926  	87.113525 
3474.370804  	87.190815 
3475.807682  	87.229155 
3477.244560  	87.327500 
3478.681437  	87.367800 
3480.118315  	87.329184 
3481.555193  	87.334227 
3482.992071  	87.276064 
3484.428949  	87.258073 
3485.865827  	87.372994 
3487.302705  	87.360932 
3488.739583  	87.349295 
3490.176461  	87.572797 
3491.613339  	87.733101 
3493.050217  	87.733139 
3494.487095  	87.659359 
3495.923972  	87.436420 
3497.360850  	87.376693 
3498.797728  	87.608706 
3500.234606  	87.653585 
3501.671484  	87.592750 
3503.108362  	87.764433 
3504.545240  	87.840575 
3505.982118  	87.726634 
3507.418996  	87.726404 
3508.855874  	87.769356 
3510.292752  	87.798037 
3511.729630  	87.859967 
3513.166507  	87.870972 
3514.603385  	87.882783 
3516.040263  	87.970521 
3517.477141  	88.049625 
3518.914019  	88.063771 
3520.350897  	88.061420 
3521.787775  	88.100188 
3523.224653  	88.143061 
3524.661531  	88.176406 
3526.098409  	88.237458 
3527.535287  	88.265402 
3528.972165  	88.265911 
3530.409043  	88.266868 
3531.845920  	88.231262 
3533.282798  	88.268344 
3534.719676  	88.348462 
3536.156554  	88.292140 
3537.593432  	88.206157 
3539.030310  	88.217221 
3540.467188  	88.310576 
3541.904066  	88.486969 
3543.340944  	88.561264 
3544.777822  	88.473713 
3546.214700  	88.465347 
3547.651578  	88.619425 
3549.088455  	88.758065 
3550.525333  	88.748813 
3551.962211  	88.623239 
3553.399089  	88.558411 
3554.835967  	88.659767 
3556.272845  	88.852617 
3557.709723  	88.989364 
3559.146601  	88.922125 
3560.583479  	88.824090 
3562.020357  	88.890697 
3563.457235  	88.917622 
3564.894113  	88.809593 
3566.330990  	88.726814 
3567.767868  	88.753910 
3569.204746  	88.909344 
3570.641624  	89.027556 
3572.078502  	89.013926 
3573.515380  	88.922327 
3574.952258  	88.937148 
3576.389136  	89.069211 
3577.826014  	89.149520 
3579.262892  	89.219037 
3580.699770  	89.357117 
3582.136648  	89.450888 
3583.573525  	89.511548 
3585.010403  	89.640250 
3586.447281  	89.803333 
3587.884159  	89.826413 
3589.321037  	89.638389 
3590.757915  	89.543305 
3592.194793  	89.621113 
3593.631671  	89.751549 
3595.068549  	89.903024 
3596.505427  	90.000916 
3597.942305  	89.993843 
3599.379183  	90.008069 
3600.816060  	89.978412 
3602.252938  	89.939378 
3603.689816  	90.102063 
3605.126694  	90.222204 
3606.563572  	90.203568 
3608.000450  	90.343601 
3609.437328  	90.492661 
3610.874206  	90.426885 
3612.311084  	90.543998 
3613.747962  	90.875580 
3615.184840  	90.988075 
3616.621718  	90.920442 
3618.058595  	90.925016 
3619.495473  	90.998078 
3620.932351  	91.089673 
3622.369229  	91.167175 
3623.806107  	91.200810 
3625.242985  	91.215896 
3626.679863  	91.290655 
3628.116741  	91.398315 
3629.553619  	91.440633 
3630.990497  	91.681748 
3632.427375  	91.840291 
3633.864253  	91.959385 
3635.301130  	92.138562 
3636.738008  	92.253573 
3638.174886  	92.235941 
3639.611764  	92.278510 
3641.048642  	92.429240 
3642.485520  	92.442111 
3643.922398  	92.390940 
3645.359276  	92.527226 
3646.796154  	92.709147 
3648.233032  	92.715618 
3649.669910  	92.771522 
3651.106788  	92.882770 
3652.543665  	92.875723 
3653.980543  	92.955218 
3655.417421  	93.104498 
3656.854299  	93.060510 
3658.291177  	93.086424 
3659.728055  	93.247233 
3661.164933  	93.203953 
3662.601811  	93.140368 
3664.038689  	93.301202 
3665.475567  	93.380309 
3666.912445  	93.321698 
3668.349323  	93.420019 
3669.786200  	93.778303 
3671.223078  	94.038239 
3672.659956  	93.800707 
3674.096834  	93.612361 
3675.533712  	93.690530 
3676.970590  	93.875939 
3678.407468  	93.757027 
3679.844346  	93.502716 
3681.281224  	93.322523 
3682.718102  	93.344657 
3684.154980  	93.361157 
3685.591858  	93.281853 
3687.028735  	93.235366 
3688.465613  	93.249338 
3689.902491  	93.319753 
3691.339369  	93.368818 
3692.776247  	93.465303 
3694.213125  	93.646343 
3695.650003  	93.737174 
3697.086881  	93.704428 
3698.523759  	93.615849 
3699.960637  	93.547545 
3701.397515  	93.559322 
3702.834393  	93.625662 
3704.271270  	93.559356 
3705.708148  	93.386497 
3707.145026  	93.367966 
3708.581904  	93.563576 
3710.018782  	93.625683 
3711.455660  	93.506719 
3712.892538  	93.556289 
3714.329416  	93.499440 
3715.766294  	93.407408 
3717.203172  	93.500108 
3718.640050  	93.492550 
3720.076928  	93.379244 
3721.513805  	93.421173 
3722.950683  	93.420480 
3724.387561  	93.299568 
3725.824439  	93.218046 
3727.261317  	93.271085 
3728.698195  	93.418586 
3730.135073  	93.413733 
3731.571951  	93.426790 
3733.008829  	93.638885 
3734.445707  	93.808165 
3735.882585  	93.869273 
3737.319463  	93.660732 
3738.756340  	93.461188 
3740.193218  	93.506494 
3741.630096  	93.373598 
3743.066974  	93.193809 
3744.503852  	93.338519 
3745.940730  	93.229439 
3747.377608  	93.122243 
3748.814486  	93.415183 
3750.251364  	93.601413 
3751.688242  	93.499916 
3753.125120  	93.583339 
3754.561998  	93.459525 
3755.998875  	93.316853 
3757.435753  	93.294980 
3758.872631  	93.261231 
3760.309509  	93.298630 
3761.746387  	93.301579 
3763.183265  	93.291316 
3764.620143  	93.387722 
3766.057021  	93.394910 
3767.493899  	93.350031 
3768.930777  	93.394845 
3770.367655  	93.418321 
3771.804533  	93.481038 
3773.241411  	93.495924 
3774.678288  	93.392817 
3776.115166  	93.263351 
3777.552044  	93.175900 
3778.988922  	93.202191 
3780.425800  	93.255657 
3781.862678  	93.188570 
3783.299556  	93.174239 
3784.736434  	93.243862 
3786.173312  	93.294682 
3787.610190  	93.277608 
3789.047068  	93.187721 
3790.483946  	93.277150 
3791.920823  	93.462297 
3793.357701  	93.295817 
3794.794579  	93.113313 
3796.231457  	93.270501 
3797.668335  	93.315634 
3799.105213  	93.158640 
3800.542091  	93.131988 
3801.978969  	93.121830 
3803.415847  	93.217524 
3804.852725  	93.339659 
3806.289603  	93.397880 
3807.726481  	93.301729 
3809.163358  	93.209576 
3810.600236  	93.181921 
3812.037114  	93.066154 
3813.473992  	92.913627 
3814.910870  	92.967014 
3816.347748  	93.090457 
3817.784626  	92.951275 
3819.221504  	92.919467 
3820.658382  	93.314099 
3822.095260  	93.689753 
3823.532138  	93.387277 
3824.969016  	93.166037 
3826.405893  	93.083495 
3827.842771  	93.068650 
3829.279649  	93.230740 
3830.716527  	93.200162 
3832.153405  	92.852814 
3833.590283  	92.839003 
3835.027161  	93.111435 
3836.464039  	93.145832 
3837.900917  	93.047585 
3839.337795  	93.083222 
3840.774673  	93.108925 
3842.211551  	93.079637 
3843.648428  	93.123545 
3845.085306  	93.160464 
3846.522184  	93.072223 
3847.959062  	93.024862 
3849.395940  	93.038978 
3850.832818  	92.979337 
3852.269696  	93.017255 
3853.706574  	93.175807 
3855.143452  	93.082107 
3856.580330  	92.951619 
3858.017208  	92.998232 
3859.454086  	93.100449 
3860.890963  	93.073172 
3862.327841  	92.910729 
3863.764719  	92.960150 
3865.201597  	93.163183 
3866.638475  	92.964767 
3868.075353  	92.800620 
3869.512231  	93.058523 
3870.949109  	93.250232 
3872.385987  	93.044090 
3873.822865  	93.044807 
3875.259743  	93.189970 
3876.696621  	93.102040 
3878.133498  	92.960335 
3879.570376  	92.868856 
3881.007254  	92.772803 
3882.444132  	92.852076 
3883.881010  	92.939333 
3885.317888  	92.860783 
3886.754766  	92.854602 
3888.191644  	93.024340 
3889.628522  	93.030902 
3891.065400  	92.973294 
3892.502278  	92.975410 
3893.939156  	93.035549 
3895.376033  	93.017914 
3896.812911  	92.894276 
3898.249789  	92.913337 
3899.686667  	93.145164 
3901.123545  	93.048977 
3902.560423  	92.761290 
3903.997301  	92.851568 
3905.434179  	93.017142 
3906.871057  	92.947213 
3908.307935  	92.882814 
3909.744813  	92.893776 
3911.181691  	92.922970 
3912.618568  	92.862548 
3914.055446  	92.786402 
3915.492324  	92.814897 
3916.929202  	92.915340 
3918.366080  	93.000422 
3919.802958  	93.029347 
3921.239836  	92.970590 
3922.676714  	92.913572 
3924.113592  	92.880113 
3925.550470  	92.844962 
3926.987348  	92.922827 
3928.424226  	92.943266 
3929.861103  	92.796281 
3931.297981  	92.801482 
3932.734859  	92.945521 
3934.171737  	92.860063 
3935.608615  	92.765745 
3937.045493  	92.847372 
3938.482371  	92.857840 
3939.919249  	92.908805 
3941.356127  	92.873465 
3942.793005  	92.829822 
3944.229883  	92.828330 
3945.666761  	92.827266 
3947.103638  	92.781292 
3948.540516  	92.753893 
3949.977394  	92.748731 
3951.414272  	92.772210 
3952.851150  	92.802409 
3954.288028  	92.780588 
3955.724906  	92.749747 
3957.161784  	92.755118 
3958.598662  	92.768298 
3960.035540  	92.809785 
3961.472418  	92.856821 
3962.909296  	92.838581 
3964.346173  	92.790220 
3965.783051  	92.751222 
3967.219929  	92.721045 
3968.656807  	92.742054 
3970.093685  	92.802964 
3971.530563  	92.819348 
3972.967441  	92.799159 
3974.404319  	92.826118 
3975.841197  	92.856989 
3977.278075  	92.813268 
3978.714953  	92.770020 
3980.151831  	92.753472 
3981.588708  	92.708933 
3983.025586  	92.679258 
3984.462464  	92.704400 
3985.899342  	92.790596 
3987.336220  	92.883338 
3988.773098  	92.831424 
3990.209976  	92.717010 
3991.646854  	92.716202 
3993.083732  	92.714973 
3994.520610  	92.675522 
3995.957488  	92.740370 
3997.394366  	92.841735 
3998.831244  	92.821727 
4000.268121  	92.715969 